lr-Adam,step,train/loss,epoch,val/loss,val/CER,val/IER,val/DER,val/SER,train/CER,train/IER,train/DER,train/SER,test/loss,test/CER,test/IER,test/DER,test/SER
1e-08,0,,,,,,,,,,,,,,,,
,49,109.98300170898438,0,,,,,,,,,,,,,,
,99,168.57595825195312,0,,,,,,,,,,,,,,
,119,,0,101.53600311279297,1358.0859375,0.0,1294.218017578125,63.86796569824219,,,,,,,,,
,119,,0,,,,,,1716.7958984375,0.0,1654.0721435546875,62.72374725341797,,,,,
0.00011112,120,,,,,,,,,,,,,,,,
,149,6.801902770996094,1,,,,,,,,,,,,,,
,199,3.7466835975646973,1,,,,,,,,,,,,,,
,239,,1,3.354947566986084,100.0,100.0,0.0,0.0,,,,,,,,,
,239,,1,,,,,,113.80764770507812,96.28414916992188,14.837224960327148,2.686275005340576,,,,,
0.00022223000000000002,240,,,,,,,,,,,,,,,,
,249,3.3875555992126465,2,,,,,,,,,,,,,,
,299,3.244663953781128,2,,,,,,,,,,,,,,
,349,3.1932122707366943,2,,,,,,,,,,,,,,
,359,,2,3.220027208328247,100.0,100.0,0.0,0.0,,,,,,,,,
,359,,2,,,,,,100.0,100.0,0.0,0.0,,,,,
0.00033334,360,,,,,,,,,,,,,,,,
,399,3.5925135612487793,3,,,,,,,,,,,,,,
,449,3.309934616088867,3,,,,,,,,,,,,,,
,479,,3,3.1002073287963867,100.0,100.0,0.0,0.0,,,,,,,,,
,479,,3,,,,,,100.0,100.0,0.0,0.0,,,,,
0.00044445,480,,,,,,,,,,,,,,,,
,499,3.2893073558807373,4,,,,,,,,,,,,,,
,549,3.0665671825408936,4,,,,,,,,,,,,,,
,599,3.0754377841949463,4,,,,,,,,,,,,,,
,599,,4,3.05574369430542,100.0,100.0,0.0,0.0,,,,,,,,,
,599,,4,,,,,,100.0,100.0,0.0,0.0,,,,,
0.00055556,600,,,,,,,,,,,,,,,,
,649,3.1208972930908203,5,,,,,,,,,,,,,,
,699,2.974398612976074,5,,,,,,,,,,,,,,
,719,,5,2.973414659500122,100.0,100.0,0.0,0.0,,,,,,,,,
,719,,5,,,,,,100.0,100.0,0.0,0.0,,,,,
0.00066667,720,,,,,,,,,,,,,,,,
,749,3.130568742752075,6,,,,,,,,,,,,,,
,799,2.940078020095825,6,,,,,,,,,,,,,,
,839,,6,2.93270206451416,100.0,100.0,0.0,0.0,,,,,,,,,
,839,,6,,,,,,99.9931411743164,99.9931411743164,0.0,0.0,,,,,
0.0007777799999999999,840,,,,,,,,,,,,,,,,
,849,2.9680442810058594,7,,,,,,,,,,,,,,
,899,3.0528573989868164,7,,,,,,,,,,,,,,
,949,2.872856616973877,7,,,,,,,,,,,,,,
,959,,7,2.8681461811065674,100.0,100.0,0.0,0.0,,,,,,,,,
,959,,7,,,,,,99.98623657226562,99.98623657226562,0.0,0.0,,,,,
0.0008888899999999999,960,,,,,,,,,,,,,,,,
,999,2.963291645050049,8,,,,,,,,,,,,,,
,1049,2.8738608360290527,8,,,,,,,,,,,,,,
,1079,,8,2.8624367713928223,100.0,100.0,0.0,0.0,,,,,,,,,
,1079,,8,,,,,,99.98760223388672,99.98622131347656,0.0,0.0013775622937828302,,,,,
0.001,1080,,,,,,,,,,,,,,,,
,1099,2.9232735633850098,9,,,,,,,,,,,,,,
,1149,2.8281054496765137,9,,,,,,,,,,,,,,
,1199,2.8876006603240967,9,,,,,,,,,,,,,,
,1199,,9,2.6450037956237793,100.0,100.0,0.0,0.0,,,,,,,,,
,1199,,9,,,,,,99.99039459228516,99.99039459228516,0.0,0.0,,,,,
0.001,1200,,,,,,,,,,,,,,,,
,1249,2.7295007705688477,10,,,,,,,,,,,,,,
,1299,2.5900001525878906,10,,,,,,,,,,,,,,
,1319,,10,2.4146318435668945,98.1612777709961,98.09481811523438,0.0,0.06645990163087845,,,,,,,,,
,1319,,10,,,,,,99.56745147705078,99.54410552978516,0.0,0.023343952372670174,,,,,
0.000999874243353782,1320,,,,,,,,,,,,,,,,
,1349,2.6855239868164062,11,,,,,,,,,,,,,,
,1399,2.444179058074951,11,,,,,,,,,,,,,,
,1439,,11,2.4116857051849365,94.5059814453125,94.35090637207031,0.0,0.1550731062889099,,,,,,,,,
,1439,,11,,,,,,97.0272216796875,96.8800277709961,0.0,0.14719437062740326,,,,,
0.0009994970367373866,1440,,,,,,,,,,,,,,,,
,1449,2.4393348693847656,12,,,,,,,,,,,,,,
,1499,2.560746192932129,12,,,,,,,,,,,,,,
,1549,2.8700337409973145,12,,,,,,,,,,,,,,
,1559,,12,2.5261037349700928,93.46477508544922,93.33185577392578,0.0,0.1329198032617569,,,,,,,,,
,1559,,12,,,,,,95.54759216308594,95.25260162353516,0.0013784547336399555,0.2936108708381653,,,,,
0.0009988685700857047,1560,,,,,,,,,,,,,,,,
,1599,3.2004246711730957,13,,,,,,,,,,,,,,
,1649,3.0283937454223633,13,,,,,,,,,,,,,,
,1679,,13,2.9355108737945557,99.97784423828125,99.97784423828125,0.0,0.0,,,,,,,,,
,1679,,13,,,,,,98.47872924804688,98.36976623535156,0.0013792152749374509,0.10757878422737122,,,,,
0.0009979891598506218,1680,,,,,,,,,,,,,,,,
,1699,3.0935072898864746,14,,,,,,,,,,,,,,
,1749,3.1190671920776367,14,,,,,,,,,,,,,,
,1799,3.073428153991699,14,,,,,,,,,,,,,,
,1799,,14,2.9397075176239014,96.98715209960938,96.677001953125,0.0,0.3101462125778198,,,,,,,,,
,1799,,14,,,,,,98.87619018554688,98.81834411621094,0.0,0.057843271642923355,,,,,
0.0009968592488416746,1800,,,,,,,,,,,,,,,,
,1849,2.738788366317749,15,,,,,,,,,,,,,,
,1899,2.664374828338623,15,,,,,,,,,,,,,,
,1919,,15,2.401472330093384,92.53433990478516,92.20204162597656,0.0,0.33229950070381165,,,,,,,,,
,1919,,15,,,,,,96.12207794189453,95.90181732177734,0.0,0.22025825083255768,,,,,
0.0009954794060030834,1920,,,,,,,,,,,,,,,,
,1949,2.626689910888672,16,,,,,,,,,,,,,,
,1999,2.3417258262634277,16,,,,,,,,,,,,,,
,2039,,16,2.282308340072632,88.70182037353516,88.21444702148438,0.0,0.48737260699272156,,,,,,,,,
,2039,,16,,,,,,91.81543731689453,91.45562744140625,0.001378568820655346,0.35842788219451904,,,,,
0.0009938503261272714,2040,,,,,,,,,,,,,,,,
,2049,2.236027479171753,17,,,,,,,,,,,,,,
,2099,2.3277206420898438,17,,,,,,,,,,,,,,
,2149,2.2059497833251953,17,,,,,,,,,,,,,,
,2159,,17,2.051407814025879,86.53079223632812,85.7332763671875,0.0,0.7975188493728638,,,,,,,,,
,2159,,17,,,,,,87.83125305175781,87.15467834472656,0.0013723633019253612,0.6752027869224548,,,,,
0.0009919728295050155,2160,,,,,,,,,,,,,,,,
,2199,2.0515007972717285,18,,,,,,,,,,,,,,
,2249,1.976567029953003,18,,,,,,,,,,,,,,
,2279,,18,1.9573087692260742,82.7868881225586,80.77093505859375,0.0,2.0159504413604736,,,,,,,,,
,2279,,18,,,,,,82.85537719726562,80.59744262695312,0.001373437698930502,2.2565581798553467,,,,,
0.0009898478615124062,2280,,,,,,,,,,,,,,,,
,2299,2.0305423736572266,19,,,,,,,,,,,,,,
,2349,1.937188744544983,19,,,,,,,,,,,,,,
,2399,1.9203194379806519,19,,,,,,,,,,,,,,
,2399,,19,1.7205144166946411,68.63092803955078,61.010189056396484,0.022153301164507866,7.5985822677612305,,,,,,,,,
,2399,,19,,,,,,73.50452423095703,66.64051818847656,0.03440256416797638,6.829596996307373,,,,,
0.000987476492134821,2400,,,,,,,,,,,,,,,,
,2449,2.1483428478240967,20,,,,,,,,,,,,,,
,2499,1.557281494140625,20,,,,,,,,,,,,,,
,2519,,20,1.4762192964553833,53.9654426574707,40.16393280029297,0.11076650768518448,13.690739631652832,,,,,,,,,
,2519,,20,,,,,,61.647682189941406,48.09586715698242,0.2242584377527237,13.327554702758789,,,,,
0.0009848599154281552,2520,,,,,,,,,,,,,,,,
,2549,1.727734088897705,21,,,,,,,,,,,,,,
,2599,1.7329785823822021,21,,,,,,,,,,,,,,
,2639,,21,1.3978232145309448,48.44926834106445,31.214000701904297,0.4430660307407379,16.79220199584961,,,,,,,,,
,2639,,21,,,,,,52.14937210083008,31.525022506713867,0.7182881832122803,19.90605926513672,,,,,
0.0009819994489175788,2640,,,,,,,,,,,,,,,,
,2649,1.7137792110443115,22,,,,,,,,,,,,,,
,2699,1.5304441452026367,22,,,,,,,,,,,,,,
,2749,1.4109985828399658,22,,,,,,,,,,,,,,
,2759,,22,1.2807202339172363,39.587947845458984,17.855560302734375,1.2627381086349487,20.469650268554688,,,,,,,,,
,2759,,22,,,,,,48.08872604370117,26.97250747680664,0.9590775370597839,20.157140731811523,,,,,
0.0009788965329341228,2760,,,,,,,,,,,,,,,,
,2799,1.3961834907531738,23,,,,,,,,,,,,,,
,2849,1.4061710834503174,23,,,,,,,,,,,,,,
,2879,,23,1.2152992486953735,38.56889724731445,17.611873626708984,1.3291980028152466,19.627824783325195,,,,,,,,,
,2879,,23,,,,,,44.38375473022461,22.661731719970703,1.0786714553833008,20.64335060119629,,,,,
0.0009755527298894293,2880,,,,,,,,,,,,,,,,
,2899,1.406482219696045,24,,,,,,,,,,,,,,
,2949,1.3670682907104492,24,,,,,,,,,,,,,,
,2999,1.3440665006637573,24,,,,,,,,,,,,,,
,2999,,24,1.172918677330017,36.64155960083008,14.000885963439941,1.7279574871063232,20.912715911865234,,,,,,,,,
,2999,,24,,,,,,41.4390869140625,19.649171829223633,1.1941940784454346,20.595722198486328,,,,,
0.0009719697234890296,3000,,,,,,,,,,,,,,,,
,3049,1.2307404279708862,25,,,,,,,,,,,,,,
,3099,1.2311396598815918,25,,,,,,,,,,,,,,
,3119,,25,1.1091363430023193,34.60345458984375,13.447053909301758,1.9937970638275146,19.16260528564453,,,,,,,,,
,3119,,25,,,,,,39.1562614440918,17.951433181762695,1.399812936782837,19.805015563964844,,,,,
0.0009681493178845487,3120,,,,,,,,,,,,,,,,
,3149,1.1609153747558594,26,,,,,,,,,,,,,,
,3199,1.2151471376419067,26,,,,,,,,,,,,,,
,3239,,26,1.090742826461792,33.67301559448242,13.048294067382812,1.9716438055038452,18.653079986572266,,,,,,,,,
,3239,,26,,,,,,37.86740493774414,16.723085403442383,1.487505555152893,19.656814575195312,,,,,
0.0009640934367652599,3240,,,,,,,,,,,,,,,,
,3249,1.3544994592666626,27,,,,,,,,,,,,,,
,3299,1.4636516571044922,27,,,,,,,,,,,,,,
,3349,1.128126621246338,27,,,,,,,,,,,,,,
,3359,,27,1.0499917268753052,32.27735900878906,11.652636528015137,1.9273371696472168,18.697385787963867,,,,,,,,,
,3359,,27,,,,,,36.35460662841797,15.471953392028809,1.5023590326309204,19.380294799804688,,,,,
0.0009598041223894496,3360,,,,,,,,,,,,,,,,
,3399,1.0895111560821533,28,,,,,,,,,,,,,,
,3449,1.3052756786346436,28,,,,,,,,,,,,,,
,3479,,28,1.1412382125854492,33.98316192626953,9.836065292358398,2.813469171524048,21.333629608154297,,,,,,,,,
,3479,,28,,,,,,35.041500091552734,14.506376266479492,1.6710642576217651,18.86406135559082,,,,,
0.0009552835345560785,3480,,,,,,,,,,,,,,,,
,3499,1.314432978630066,29,,,,,,,,,,,,,,
,3549,1.1266306638717651,29,,,,,,,,,,,,,,
,3599,1.1349706649780273,29,,,,,,,,,,,,,,
,3599,,29,0.957631528377533,30.128488540649414,10.34559154510498,1.4621179103851318,18.32077980041504,,,,,,,,,
,3599,,29,,,,,,33.960426330566406,13.604218482971191,1.7521936893463135,18.60401153564453,,,,,
0.0009505339495172582,3600,,,,,,,,,,,,,,,,
,3649,1.068564772605896,30,,,,,,,,,,,,,,
,3699,1.2252566814422607,30,,,,,,,,,,,,,,
,3719,,30,0.9914734363555908,29.419584274291992,7.199822902679443,2.259636640548706,19.960124969482422,,,,,,,,,
,3719,,30,,,,,,32.17707824707031,12.540498733520508,1.7867729663848877,17.84980583190918,,,,,
0.0009455577588320895,3720,,,,,,,,,,,,,,,,
,3749,1.0886502265930176,31,,,,,,,,,,,,,,
,3799,1.2335715293884277,31,,,,,,,,,,,,,,
,3839,,31,0.960800051689148,30.394329071044922,11.408949851989746,1.2848914861679077,17.70048713684082,,,,,,,,,
,3839,,31,,,,,,31.653837203979492,12.04325008392334,1.7014503479003906,17.909137725830078,,,,,
0.0009403574681624404,3840,,,,,,,,,,,,,,,,
,3849,1.0217065811157227,32,,,,,,,,,,,,,,
,3899,1.024320125579834,32,,,,,,,,,,,,,,
,3949,1.0863345861434937,32,,,,,,,,,,,,,,
,3959,,32,0.9198153018951416,28.046079635620117,9.016393661499023,1.7501107454299927,17.27957534790039,,,,,,,,,
,3959,,32,,,,,,30.75029945373535,11.670401573181152,1.7241616249084473,17.355735778808594,,,,,
0.0009349356960112697,3960,,,,,,,,,,,,,,,,
,3999,0.9009100794792175,33,,,,,,,,,,,,,,
,4049,0.9406415224075317,33,,,,,,,,,,,,,,
,4079,,33,0.883427619934082,27.558706283569336,8.462560653686523,1.7501107454299927,17.34603500366211,,,,,,,,,
,4079,,33,,,,,,29.216535568237305,10.690254211425781,1.8586950302124023,16.667585372924805,,,,,
0.0009292951724041319,4080,,,,,,,,,,,,,,,,
,4099,0.8399139046669006,34,,,,,,,,,,,,,,
,4149,1.1288425922393799,34,,,,,,,,,,,,,,
,4199,1.019252896308899,34,,,,,,,,,,,,,,
,4199,,34,0.9459220767021179,30.305715560913086,13.890119552612305,0.6867523193359375,15.728843688964844,,,,,,,,,
,4199,,34,,,,,,27.975765228271484,9.992032051086426,1.8176072835922241,16.166126251220703,,,,,
0.0009234387375145277,4200,,,,,,,,,,,,,,,,
,4249,0.9892075657844543,35,,,,,,,,,,,,,,
,4299,0.8789148330688477,35,,,,,,,,,,,,,,
,4319,,35,0.9280853271484375,28.02392578125,8.529021263122559,1.5728843212127686,17.922019958496094,,,,,,,,,
,4319,,35,,,,,,28.079408645629883,10.197418212890625,1.808863878250122,16.0731258392334,,,,,
0.0009173693402337905,4320,,,,,,,,,,,,,,,,
,4349,0.8298726081848145,36,,,,,,,,,,,,,,
,4399,0.9231723546981812,36,,,,,,,,,,,,,,
,4439,,36,0.8826190233230591,28.223304748535156,10.700044631958008,1.0633584260940552,16.459901809692383,,,,,,,,,
,4439,,36,,,,,,27.601072311401367,9.760411262512207,1.9247243404388428,15.915936470031738,,,,,
0.0009110900366862309,4440,,,,,,,,,,,,,,,,
,4449,0.9582593441009521,37,,,,,,,,,,,,,,
,4499,0.9015040397644043,37,,,,,,,,,,,,,,
,4549,0.8797816038131714,37,,,,,,,,,,,,,,
,4559,,37,0.8639308214187622,26.49534797668457,8.617633819580078,1.5507310628890991,16.326982498168945,,,,,,,,,
,4559,,37,,,,,,26.215898513793945,9.138752937316895,1.8371434211730957,15.240002632141113,,,,,
0.000904603988690286,4560,,,,,,,,,,,,,,,,
,4599,0.8415758013725281,38,,,,,,,,,,,,,,
,4649,0.9267547726631165,38,,,,,,,,,,,,,,
,4679,,38,0.8882102966308594,27.04918098449707,8.21887493133545,1.6614975929260254,17.168807983398438,,,,,,,,,
,4679,,38,,,,,,24.945388793945312,8.686990737915039,1.911055564880371,14.347342491149902,,,,,
0.0008979144621664494,4680,,,,,,,,,,,,,,,,
,4699,0.955351710319519,39,,,,,,,,,,,,,,
,4749,0.8161561489105225,39,,,,,,,,,,,,,,
,4799,0.9780736565589905,39,,,,,,,,,,,,,,
,4799,,39,0.8820618391036987,26.18520164489746,8.041647911071777,1.5064244270324707,16.637128829956055,,,,,,,,,
,4799,,39,,,,,,24.633893966674805,8.444138526916504,1.909934639930725,14.279821395874023,,,,,
0.0008910248254927808,4800,,,,,,,,,,,,,,,,
,4849,0.8014969825744629,40,,,,,,,,,,,,,,
,4899,0.7211251258850098,40,,,,,,,,,,,,,,
,4919,,40,0.8393068313598633,25.498449325561523,7.975188255310059,1.3513513803482056,16.17190933227539,,,,,,,,,
,4919,,40,,,,,,23.880084991455078,8.224615097045898,1.914361834526062,13.741107940673828,,,,,
0.0008839385478088264,4920,,,,,,,,,,,,,,,,
,4949,0.6845775842666626,41,,,,,,,,,,,,,,
,4999,0.7422103881835938,41,,,,,,,,,,,,,,
,5039,,41,0.8057621121406555,24.988924026489258,8.041647911071777,1.4842711687088013,15.463004112243652,,,,,,,,,
,5039,,41,,,,,,23.001981735229492,7.798051357269287,1.864542007446289,13.339387893676758,,,,,
0.0008766591972688036,5040,,,,,,,,,,,,,,,,
,5049,0.7569421529769897,42,,,,,,,,,,,,,,
,5099,0.6916534900665283,42,,,,,,,,,,,,,,
,5149,0.8828564286231995,42,,,,,,,,,,,,,,
,5159,,42,0.8215345740318298,23.903411865234375,6.38015079498291,1.7279574871063232,15.795303344726562,,,,,,,,,
,5159,,42,,,,,,23.153942108154297,8.21081256866455,1.7962013483047485,13.146927833557129,,,,,
0.0008691904392449266,5160,,,,,,,,,,,,,,,,
,5199,0.7961962819099426,43,,,,,,,,,,,,,,
,5249,0.7806565761566162,43,,,,,,,,,,,,,,
,5279,,43,0.8090646266937256,23.615419387817383,5.892777919769287,2.237483501434326,15.485157012939453,,,,,,,,,
,5279,,43,,,,,,21.696319580078125,7.247714042663574,1.892145037651062,12.556461334228516,,,,,
0.000861536034481782,5280,,,,,,,,,,,,,,,,
,5299,0.6728579998016357,44,,,,,,,,,,,,,,
,5349,0.6553531885147095,44,,,,,,,,,,,,,,
,5399,0.8114920854568481,44,,,,,,,,,,,,,,
,5399,,44,0.8218686580657959,24.92246437072754,8.418253898620605,1.3291980028152466,15.175010681152344,,,,,,,,,
,5399,,44,,,,,,21.066024780273438,7.1210455894470215,1.870701551437378,12.074277877807617,,,,,
0.0008536998372026804,5400,,,,,,,,,,,,,,,,
,5449,0.6770044565200806,45,,,,,,,,,,,,,,
,5499,0.7289894223213196,45,,,,,,,,,,,,,,
,5519,,45,0.8200361132621765,23.327425003051758,6.114311218261719,1.6614975929260254,15.551617622375488,,,,,,,,,
,5519,,45,,,,,,20.411727905273438,7.1481614112854,1.8248577117919922,11.438708305358887,,,,,
0.0008456857931689388,5520,,,,,,,,,,,,,,,,
,5549,0.8129129409790039,46,,,,,,,,,,,,,,
,5599,0.8199518322944641,46,,,,,,,,,,,,,,
,5639,,46,0.8015362024307251,22.817899703979492,5.250332355499268,2.215330123901367,15.352237701416016,,,,,,,,,
,5639,,46,,,,,,20.345306396484375,6.81940221786499,1.854580044746399,11.671324729919434,,,,,
0.000837497937693071,5640,,,,,,,,,,,,,,,,
,5649,0.8064041137695312,47,,,,,,,,,,,,,,
,5699,0.7045460939407349,47,,,,,,,,,,,,,,
,5749,0.551323413848877,47,,,,,,,,,,,,,,
,5759,,47,0.8109307289123535,24.435091018676758,7.377048969268799,1.7058041095733643,15.352237701416016,,,,,,,,,
,5759,,47,,,,,,19.275314331054688,6.711890697479248,1.775865912437439,10.787557601928711,,,,,
0.0008291403936068863,5760,,,,,,,,,,,,,,,,
,5799,0.6498163342475891,48,,,,,,,,,,,,,,
,5849,0.6318988800048828,48,,,,,,,,,,,,,,
,5879,,48,0.8277901411056519,22.485599517822266,4.408506870269775,2.4811697006225586,15.59592342376709,,,,,,,,,
,5879,,48,,,,,,18.766084671020508,6.472344875335693,1.7532994747161865,10.540440559387207,,,,,
0.0008206173691855193,5880,,,,,,,,,,,,,,,,
,5899,0.5839138627052307,49,,,,,,,,,,,,,,
,5949,0.6365929841995239,49,,,,,,,,,,,,,,
,5999,0.7295225858688354,49,,,,,,,,,,,,,,
,5999,,49,0.912534236907959,25.27691650390625,5.383252143859863,2.4147098064422607,17.478954315185547,,,,,,,,,
,5999,,49,,,,,,18.62013053894043,6.424473762512207,1.869287133216858,10.326370239257812,,,,,
0.0008119331560284373,6000,,,,,,,,,,,,,,,,
,6049,0.6993833780288696,50,,,,,,,,,,,,,,
,6099,0.6627881526947021,50,,,,,,,,,,,,,,
,6119,,50,0.8469679951667786,24.811697006225586,7.377048969268799,1.3513513803482056,16.083295822143555,,,,,,,,,
,6119,,50,,,,,,18.129119873046875,6.212056636810303,1.8445683717727661,10.072494506835938,,,,,
0.0008030921268984896,6120,,,,,,,,,,,,,,,,
,6149,0.5506507158279419,51,,,,,,,,,,,,,,
,6199,0.5913619995117188,51,,,,,,,,,,,,,,
,6239,,51,0.8439633250236511,23.216659545898438,5.870624542236328,1.6393442153930664,15.706689834594727,,,,,,,,,
,6239,,51,,,,,,17.114370346069336,6.078334331512451,1.7853219509124756,9.250714302062988,,,,,
0.0007940987335200902,6240,,,,,,,,,,,,,,,,
,6249,0.5952985286712646,52,,,,,,,,,,,,,,
,6299,0.6261991262435913,52,,,,,,,,,,,,,,
,6349,0.4584938585758209,52,,,,,,,,,,,,,,
,6359,,52,0.8245369791984558,22.928667068481445,5.383252143859863,1.9494904279708862,15.59592342376709,,,,,,,,,
,6359,,52,,,,,,16.443355560302734,5.893774509429932,1.7502306699752808,8.799349784851074,,,,,
0.0007849575043376416,6360,,,,,,,,,,,,,,,,
,6399,0.5593166351318359,53,,,,,,,,,,,,,,
,6449,0.5560052394866943,53,,,,,,,,,,,,,,
,6479,,53,0.9174575209617615,26.229507446289062,9.105006217956543,1.2848914861679077,15.83961009979248,,,,,,,,,
,6479,,53,,,,,,16.15007781982422,5.660922527313232,1.7094252109527588,8.779728889465332,,,,,
0.000775673042235325,6480,,,,,,,,,,,,,,,,
,6499,0.5669289827346802,54,,,,,,,,,,,,,,
,6549,0.6328812837600708,54,,,,,,,,,,,,,,
,6599,0.5014776587486267,54,,,,,,,,,,,,,,
,6599,,54,0.8160758018493652,22.795745849609375,5.981391429901123,1.9273371696472168,14.887018203735352,,,,,,,,,
,6599,,54,,,,,,16.193981170654297,5.779725551605225,1.7529352903366089,8.661319732666016,,,,,
0.0007662500222194103,6600,,,,,,,,,,,,,,,,
,6649,0.5362124443054199,55,,,,,,,,,,,,,,
,6699,0.510640561580658,55,,,,,,,,,,,,,,
,6719,,55,0.8722144961357117,23.39388656616211,5.981391429901123,1.6614975929260254,15.750996589660645,,,,,,,,,
,6719,,55,,,,,,15.77294921875,5.754771709442139,1.7901897430419922,8.227987289428711,,,,,
0.00075669318906425,6720,,,,,,,,,,,,,,,,
,6749,0.5442988872528076,56,,,,,,,,,,,,,,
,6799,0.5320489406585693,56,,,,,,,,,,,,,,
,6839,,56,0.863696277141571,23.01727867126465,5.405405521392822,2.1267168521881104,15.485157012939453,,,,,,,,,
,6839,,56,,,,,,15.47947883605957,5.7407612800598145,1.8077114820480347,7.931005954742432,,,,,
0.0007470073549231411,6840,,,,,,,,,,,,,,,,
,6849,0.4841478168964386,57,,,,,,,,,,,,,,
,6899,0.5747969150543213,57,,,,,,,,,,,,,,
,6949,0.4312315285205841,57,,,,,,,,,,,,,,
,6959,,57,0.8598153591156006,23.371732711791992,6.978289604187012,1.373504638671875,15.019937515258789,,,,,,,,,
,6959,,57,,,,,,14.761662483215332,5.583860874176025,1.638353705406189,7.539448261260986,,,,,
0.0007371973969052627,6960,,,,,,,,,,,,,,,,
,6999,0.4071025550365448,58,,,,,,,,,,,,,,
,7049,0.5958250761032104,58,,,,,,,,,,,,,,
,7079,,58,0.8849402666091919,23.548959732055664,5.139565944671631,2.0381035804748535,16.37129020690918,,,,,,,,,
,7079,,58,,,,,,14.13459587097168,5.278177738189697,1.7122864723205566,7.144131183624268,,,,,
0.0007272682546199035,7080,,,,,,,,,,,,,,,,
,7099,0.33931154012680054,59,,,,,,,,,,,,,,
,7149,0.47167813777923584,59,,,,,,,,,,,,,,
,7199,0.4615156352519989,59,,,,,,,,,,,,,,
,7199,,59,0.916126549243927,23.26096534729004,6.313690662384033,1.7279574871063232,15.219317436218262,,,,,,,,,
,7199,,59,,,,,,13.695574760437012,5.214673042297363,1.7005865573883057,6.7803144454956055,,,,,
0.0007172249276892202,7200,,,,,,,,,,,,,,,,
,7249,0.41007620096206665,60,,,,,,,,,,,,,,
,7299,0.4271656274795532,60,,,,,,,,,,,,,,
,7319,,60,0.8862148523330688,21.9317684173584,4.408506870269775,2.259636640548706,15.26362419128418,,,,,,,,,
,7319,,60,,,,,,12.941370010375977,5.087042331695557,1.5574532747268677,6.296874046325684,,,,,
0.0007070724732307769,7320,,,,,,,,,,,,,,,,
,7349,0.5216095447540283,61,,,,,,,,,,,,,,
,7399,0.5326894521713257,61,,,,,,,,,,,,,,
,7439,,61,0.9041771292686462,23.01727867126465,5.250332355499268,2.0381035804748535,15.728843688964844,,,,,,,,,
,7439,,61,,,,,,12.258224487304688,4.978784561157227,1.5401995182037354,5.739240646362305,,,,,
0.0006968160033111347,7440,,,,,,,,,,,,,,,,
,7449,0.45651137828826904,62,,,,,,,,,,,,,,
,7499,0.49565210938453674,62,,,,,,,,,,,,,,
,7549,0.5091758966445923,62,,,,,,,,,,,,,,
,7559,,62,0.9364134073257446,24.811697006225586,8.041647911071777,1.4178112745285034,15.352237701416016,,,,,,,,,
,7559,,62,,,,,,13.545344352722168,5.237753868103027,1.663172960281372,6.6444172859191895,,,,,
0.0006864606823717715,7560,,,,,,,,,,,,,,,,
,7599,0.48700952529907227,63,,,,,,,,,,,,,,
,7649,0.44003432989120483,63,,,,,,,,,,,,,,
,7679,,63,0.8696783781051636,22.684980392456055,6.446610450744629,1.5507310628890991,14.687638282775879,,,,,,,,,
,7679,,63,,,,,,11.745861053466797,4.768189907073975,1.5756475925445557,5.402023792266846,,,,,
0.0006760117246286306,7680,,,,,,,,,,,,,,,,
,7699,0.4879703223705292,64,,,,,,,,,,,,,,
,7749,0.3903839588165283,64,,,,,,,,,,,,,,
,7799,0.6162635684013367,64,,,,,,,,,,,,,,
,7799,,64,0.9393137693405151,24.41293716430664,7.02259635925293,1.5950376987457275,15.795303344726562,,,,,,,,,
,7799,,64,,,,,,11.157990455627441,4.581936359405518,1.5199824571609497,5.056071758270264,,,,,
0.0006654743914466059,7800,,,,,,,,,,,,,,,,
,7849,0.3870178461074829,65,,,,,,,,,,,,,,
,7899,0.49083411693573,65,,,,,,,,,,,,,,
,7919,,65,0.9260759353637695,23.283119201660156,5.361098766326904,2.1488702297210693,15.773150444030762,,,,,,,,,
,7919,,65,,,,,,11.602370262145996,4.69688606262207,1.4659686088562012,5.439515113830566,,,,,
0.0006548539886902862,7920,,,,,,,,,,,,,,,,
,7949,0.425822377204895,66,,,,,,,,,,,,,,
,7999,0.3929271697998047,66,,,,,,,,,,,,,,
,8039,,66,0.9510289430618286,23.371732711791992,5.693398475646973,1.6836508512496948,15.994683265686035,,,,,,,,,
,8039,,66,,,,,,12.006064414978027,4.935565948486328,1.5987870693206787,5.471711158752441,,,,,
0.0006441558640522925,8040,,,,,,,,,,,,,,,,
,8049,0.5152143836021423,67,,,,,,,,,,,,,,
,8099,0.3353199064731598,67,,,,,,,,,,,,,,
,8149,0.35878556966781616,67,,,,,,,,,,,,,,
,8159,,67,0.873265266418457,21.400089263916016,5.028799057006836,2.0159504413604736,14.355339050292969,,,,,,,,,
,8159,,67,,,,,,11.050393104553223,4.696554660797119,1.4948588609695435,4.85897970199585,,,,,
0.000633385404360554,8160,,,,,,,,,,,,,,,,
,8199,0.387498140335083,68,,,,,,,,,,,,,,
,8249,0.3143688142299652,68,,,,,,,,,,,,,,
,8279,,68,0.8768060803413391,21.9317684173584,5.804164886474609,1.860877275466919,14.266725540161133,,,,,,,,,
,8279,,68,,,,,,9.939593315124512,4.347885608673096,1.4195497035980225,4.172158241271973,,,,,
0.0006225480328658779,8280,,,,,,,,,,,,,,,,
,8299,0.5516055822372437,69,,,,,,,,,,,,,,
,8349,0.3052437901496887,69,,,,,,,,,,,,,,
,8399,0.33955949544906616,69,,,,,,,,,,,,,,
,8399,,69,0.9581579566001892,22.17545509338379,5.2946391105651855,1.7722641229629517,15.108551025390625,,,,,,,,,
,8399,,69,,,,,,9.871551513671875,4.351294040679932,1.4137580394744873,4.106499671936035,,,,,
0.0006116492065111788,8400,,,,,,,,,,,,,,,,
,8449,0.36192619800567627,70,,,,,,,,,,,,,,
,8499,0.49812665581703186,70,,,,,,,,,,,,,,
,8519,,70,0.9308639168739319,22.441293716430664,7.709348678588867,1.1962782144546509,13.535666465759277,,,,,,,,,
,8519,,70,,,,,,9.014169692993164,4.102231979370117,1.3150827884674072,3.5968549251556396,,,,,
0.0006006944131837446,8520,,,,,,,,,,,,,,,,
,8549,0.36297905445098877,71,,,,,,,,,,,,,,
,8599,0.3280230760574341,71,,,,,,,,,,,,,,
,8639,,71,0.9276021122932434,21.754541397094727,5.449711799621582,1.9273371696472168,14.37749195098877,,,,,,,,,
,8639,,71,,,,,,8.655393600463867,4.0188212394714355,1.2850322723388672,3.3515403270721436,,,,,
0.0005896891689519189,8640,,,,,,,,,,,,,,,,
,8649,0.28057020902633667,72,,,,,,,,,,,,,,
,8699,0.38419511914253235,72,,,,,,,,,,,,,,
,8749,0.3276156485080719,72,,,,,,,,,,,,,,
,8759,,72,0.947464108467102,21.48870086669922,5.117412567138672,2.0381035804748535,14.333185195922852,,,,,,,,,
,8759,,72,,,,,,9.038302421569824,4.101680755615234,1.3640121221542358,3.5726094245910645,,,,,
0.0005786390152875952,8760,,,,,,,,,,,,,,,,
,8799,0.30654269456863403,73,,,,,,,,,,,,,,
,8849,0.43530401587486267,73,,,,,,,,,,,,,,
,8879,,73,0.9511004686355591,22.64067268371582,5.737704753875732,1.860877275466919,15.042091369628906,,,,,,,,,
,8879,,73,,,,,,8.406599998474121,3.9858999252319336,1.3414349555969238,3.0792653560638428,,,,,
0.0005675495162759188,8880,,,,,,,,,,,,,,,,
,8899,0.34367749094963074,74,,,,,,,,,,,,,,
,8949,0.29050642251968384,74,,,,,,,,,,,,,,
,8999,0.3904935121536255,74,,,,,,,,,,,,,,
,8999,,74,0.9607462882995605,21.48870086669922,4.7629594802856445,1.7501107454299927,14.975631713867188,,,,,,,,,
,8999,,74,,,,,,7.995537281036377,3.7546658515930176,1.2644106149673462,2.9764609336853027,,,,,
0.0005564262558136021,9000,,,,,,,,,,,,,,,,
,9049,0.30082830786705017,75,,,,,,,,,,,,,,
,9099,0.35491400957107544,75,,,,,,,,,,,,,,
,9119,,75,1.0208635330200195,22.485599517822266,5.050952434539795,2.0381035804748535,15.396544456481934,,,,,,,,,
,9119,,75,,,,,,7.790616035461426,3.7858235836029053,1.1898695230484009,2.814923048019409,,,,,
0.0005452748347972648,9120,,,,,,,,,,,,,,,,
,9149,0.31505173444747925,76,,,,,,,,,,,,,,
,9199,0.40030136704444885,76,,,,,,,,,,,,,,
,9239,,76,0.9907733201980591,21.821001052856445,5.538325309753418,1.7501107454299927,14.532565116882324,,,,,,,,,
,9239,,76,,,,,,7.699719429016113,3.8154489994049072,1.2346528768539429,2.6496174335479736,,,,,
0.0005341008683032136,9240,,,,,,,,,,,,,,,,
,9249,0.32775160670280457,77,,,,,,,,,,,,,,
,9299,0.40446287393569946,77,,,,,,,,,,,,,,
,9349,0.2576516568660736,77,,,,,,,,,,,,,,
,9359,,77,0.9514654874801636,21.62162208557129,5.671245098114014,1.9273371696472168,14.023039817810059,,,,,,,,,
,9359,,77,,,,,,7.688299655914307,3.68851900100708,1.2450464963912964,2.7547340393066406,,,,,
0.0005229099827600821,9360,,,,,,,,,,,,,,,,
,9399,0.24823810160160065,78,,,,,,,,,,,,,,
,9449,0.314571738243103,78,,,,,,,,,,,,,,
,9479,,78,1.0123628377914429,22.352680206298828,5.826318264007568,1.8830305337905884,14.643331527709961,,,,,,,,,
,9479,,78,,,,,,7.466604232788086,3.652905225753784,1.1557912826538086,2.657907724380493,,,,,
0.0005117078131157544,9480,,,,,,,,,,,,,,,,
,9499,0.3103174567222595,79,,,,,,,,,,,,,,
,9549,0.3388949930667877,79,,,,,,,,,,,,,,
,9599,0.1888594776391983,79,,,,,,,,,,,,,,
,9599,,79,1.0061967372894287,22.352680206298828,6.756756782531738,1.4178112745285034,14.178112983703613,,,,,,,,,
,9599,,79,,,,,,7.139800548553467,3.5781829357147217,1.114040732383728,2.4475765228271484,,,,,
0.0005004999999999998,9600,,,,,,,,,,,,,,,,
,9649,0.5306426286697388,80,,,,,,,,,,,,,,
,9699,0.31123974919319153,80,,,,,,,,,,,,,,
,9719,,80,1.017743468284607,21.599468231201172,5.959238052368164,1.5285778045654297,14.111652374267578,,,,,,,,,
,9719,,80,,,,,,7.260194778442383,3.6500468254089355,1.1653183698654175,2.4448297023773193,,,,,
0.0004892921868842453,9720,,,,,,,,,,,,,,,,
,9749,0.29266780614852905,81,,,,,,,,,,,,,,
,9799,0.2935066819190979,81,,,,,,,,,,,,,,
,9839,,81,1.0545767545700073,22.352680206298828,5.449711799621582,1.9716438055038452,14.93132495880127,,,,,,,,,
,9839,,81,,,,,,6.984787464141846,3.597806215286255,1.0913299322128296,2.2956511974334717,,,,,
0.0004780900172399177,9840,,,,,,,,,,,,,,,,
,9849,0.30872678756713867,82,,,,,,,,,,,,,,
,9899,0.2385987937450409,82,,,,,,,,,,,,,,
,9949,0.3085995316505432,82,,,,,,,,,,,,,,
,9959,,82,1.010772705078125,21.776695251464844,6.269383907318115,1.5507310628890991,13.956579208374023,,,,,,,,,
,9959,,82,,,,,,6.327355861663818,3.273007392883301,1.0644149780273438,1.9899334907531738,,,,,
0.0004668991316967861,9960,,,,,,,,,,,,,,,,
,9999,0.24019190669059753,83,,,,,,,,,,,,,,
,10049,0.2991127371788025,83,,,,,,,,,,,,,,
,10079,,83,1.0119627714157104,21.66592788696289,5.826318264007568,1.8830305337905884,13.956579208374023,,,,,,,,,
,10079,,83,,,,,,6.636571407318115,3.564645290374756,1.0969197750091553,1.9750062227249146,,,,,
0.0004557251652027349,10080,,,,,,,,,,,,,,,,
,10099,0.18604864180088043,84,,,,,,,,,,,,,,
,10149,0.271989643573761,84,,,,,,,,,,,,,,
,10199,0.34228190779685974,84,,,,,,,,,,,,,,
,10199,,84,1.0076770782470703,21.178556442260742,4.652193069458008,2.215330123901367,14.31103229522705,,,,,,,,,
,10199,,84,,,,,,5.954622268676758,3.2638421058654785,0.9674715399742126,1.7233086824417114,,,,,
0.0004445737441863976,10200,,,,,,,,,,,,,,,,
,10249,0.22816050052642822,85,,,,,,,,,,,,,,
,10299,0.21868184208869934,85,,,,,,,,,,,,,,
,10319,,85,1.0205953121185303,21.90961456298828,5.582631587982178,1.7722641229629517,14.554718971252441,,,,,,,,,
,10319,,85,,,,,,5.822286128997803,3.1653943061828613,0.9715293645858765,1.6853623390197754,,,,,
0.000433450483724081,10320,,,,,,,,,,,,,,,,
,10349,0.2048749029636383,86,,,,,,,,,,,,,,
,10399,0.24247103929519653,86,,,,,,,,,,,,,,
,10439,,86,1.0114809274673462,21.48870086669922,5.361098766326904,1.8165706396102905,14.31103229522705,,,,,,,,,
,10439,,86,,,,,,5.680218696594238,3.1685574054718018,0.9191024303436279,1.5925588607788086,,,,,
0.0004223609847124046,10440,,,,,,,,,,,,,,,,
,10449,0.3184430003166199,87,,,,,,,,,,,,,,
,10499,0.19166415929794312,87,,,,,,,,,,,,,,
,10549,0.21035030484199524,87,,,,,,,,,,,,,,
,10559,,87,1.0432310104370117,21.333629608154297,4.142667293548584,2.724855899810791,14.466105461120605,,,,,,,,,
,10559,,87,,,,,,5.183119297027588,2.939802646636963,0.9025469422340393,1.34076988697052,,,,,
0.0004113108310480809,10560,,,,,,,,,,,,,,,,
,10599,0.22791272401809692,88,,,,,,,,,,,,,,
,10649,0.38014233112335205,88,,,,,,,,,,,,,,
,10679,,88,1.1265159845352173,23.061586380004883,3.4559149742126465,3.5002214908599854,16.105449676513672,,,,,,,,,
,10679,,88,,,,,,6.755570411682129,3.556140899658203,1.1044342517852783,2.0949950218200684,,,,,
0.00040030558681625514,10680,,,,,,,,,,,,,,,,
,10699,0.33585113286972046,89,,,,,,,,,,,,,,
,10749,0.18259122967720032,89,,,,,,,,,,,,,,
,10799,0.2308618426322937,89,,,,,,,,,,,,,,
,10799,,89,1.0079866647720337,20.979175567626953,5.383252143859863,1.7722641229629517,13.823659896850586,,,,,,,,,
,10799,,89,,,,,,5.987776756286621,3.265058994293213,0.9718092679977417,1.7509084939956665,,,,,
0.0003893507934888208,10800,,,,,,,,,,,,,,,,
,10849,0.2805721163749695,90,,,,,,,,,,,,,,
,10899,0.16936002671718597,90,,,,,,,,,,,,,,
,10919,,90,1.0302232503890991,22.131147384643555,5.560478687286377,2.1488702297210693,14.421798706054688,,,,,,,,,
,10919,,90,,,,,,5.158724784851074,2.9488255977630615,0.8737770318984985,1.3361220359802246,,,,,
0.0003784519671341218,10920,,,,,,,,,,,,,,,,
,10949,0.13183839619159698,91,,,,,,,,,,,,,,
,10999,0.2303689867258072,91,,,,,,,,,,,,,,
,11039,,91,1.0445884466171265,22.086841583251953,5.78201150894165,1.8165706396102905,14.488258361816406,,,,,,,,,
,11039,,91,,,,,,5.028048515319824,2.9550812244415283,0.8848703503608704,1.1880970001220703,,,,,
0.00036761459563944575,11040,,,,,,,,,,,,,,,,
,11049,0.18307025730609894,92,,,,,,,,,,,,,,
,11099,0.19187217950820923,92,,,,,,,,,,,,,,
,11149,0.2285316288471222,92,,,,,,,,,,,,,,
,11159,,92,1.0752229690551758,22.04253387451172,5.20602560043335,1.7501107454299927,15.086398124694824,,,,,,,,,
,11159,,92,,,,,,5.081409931182861,2.9563565254211426,0.9014960527420044,1.2235572338104248,,,,,
0.0003568441359477071,11160,,,,,,,,,,,,,,,,
,11199,0.25534889101982117,93,,,,,,,,,,,,,,
,11249,0.17836624383926392,93,,,,,,,,,,,,,,
,11279,,93,1.0974955558776855,22.086841583251953,6.2250776290893555,1.8830305337905884,13.97873306274414,,,,,,,,,
,11279,,93,,,,,,5.006471633911133,3.03334903717041,0.8743425011634827,1.0987800359725952,,,,,
0.0003461460113097136,11280,,,,,,,,,,,,,,,,
,11299,0.32595929503440857,94,,,,,,,,,,,,,,
,11349,0.25072091817855835,94,,,,,,,,,,,,,,
,11399,0.1532723307609558,94,,,,,,,,,,,,,,
,11399,,94,1.0574750900268555,21.11209487915039,4.8072662353515625,1.7501107454299927,14.554718971252441,,,,,,,,,
,11399,,94,,,,,,5.658306121826172,3.180396318435669,0.9439657330513,1.5339443683624268,,,,,
0.0003355256085533939,11400,,,,,,,,,,,,,,,,
,11449,0.19456027448177338,95,,,,,,,,,,,,,,
,11499,0.2699555456638336,95,,,,,,,,,,,,,,
,11519,,95,1.0492171049118042,21.333629608154297,4.7851128578186035,2.193176746368408,14.355339050292969,,,,,,,,,
,11519,,95,,,,,,4.821904182434082,2.9588329792022705,0.876333475112915,0.9867376685142517,,,,,
0.0003249882753713692,11520,,,,,,,,,,,,,,,,
,11549,0.2629709541797638,96,,,,,,,,,,,,,,
,11599,0.29521018266677856,96,,,,,,,,,,,,,,
,11639,,96,1.0027168989181519,21.533008575439453,6.335844039916992,1.3956578969955444,13.801506042480469,,,,,,,,,
,11639,,96,,,,,,4.509819984436035,2.791989803314209,0.7674533724784851,0.9503768682479858,,,,,
0.00031453931762822837,11640,,,,,,,,,,,,,,,,
,11649,0.18960349261760712,97,,,,,,,,,,,,,,
,11699,0.2433856576681137,97,,,,,,,,,,,,,,
,11749,0.17453327775001526,97,,,,,,,,,,,,,,
,11759,,97,1.092089056968689,21.200708389282227,5.139565944671631,2.171023368835449,13.890119552612305,,,,,,,,,
,11759,,97,,,,,,4.311329364776611,2.6957850456237793,0.7596086263656616,0.85593581199646,,,,,
0.0003041839966888652,11760,,,,,,,,,,,,,,,,
,11799,0.24266445636749268,98,,,,,,,,,,,,,,
,11849,0.3857841491699219,98,,,,,,,,,,,,,,
,11879,,98,1.043735384941101,21.998228073120117,5.826318264007568,1.7058041095733643,14.466105461120605,,,,,,,,,
,11879,,98,,,,,,4.264275074005127,2.74151611328125,0.7386824488639832,0.7840763926506042,,,,,
0.0002939275267692228,11880,,,,,,,,,,,,,,,,
,11899,0.24654877185821533,99,,,,,,,,,,,,,,
,11949,0.16674354672431946,99,,,,,,,,,,,,,,
,11999,0.21188309788703918,99,,,,,,,,,,,,,,
,11999,,99,1.082531452178955,21.66592788696289,5.272485733032227,2.259636640548706,14.133806228637695,,,,,,,,,
,11999,,99,,,,,,4.170156478881836,2.6624741554260254,0.7483488321304321,0.7593337893486023,,,,,
0.00028377507231077965,12000,,,,,,,,,,,,,,,,
,12049,0.18080949783325195,100,,,,,,,,,,,,,,
,12099,0.19376665353775024,100,,,,,,,,,,,,,,
,12119,,100,1.0728830099105835,21.55516242980957,6.313690662384033,1.6393442153930664,13.602127075195312,,,,,,,,,
,12119,,100,,,,,,4.059588432312012,2.5602617263793945,0.7929527759552002,0.7063738703727722,,,,,
0.0002737317453800963,12120,,,,,,,,,,,,,,,,
,12149,0.21941114962100983,101,,,,,,,,,,,,,,
,12199,0.15099595487117767,101,,,,,,,,,,,,,,
,12239,,101,1.0485601425170898,21.00132942199707,5.538325309753418,1.4178112745285034,14.04519271850586,,,,,,,,,
,12239,,101,,,,,,3.877960443496704,2.5701961517333984,0.6895983219146729,0.6181658506393433,,,,,
0.00026380260309473707,12240,,,,,,,,,,,,,,,,
,12249,0.2057499885559082,102,,,,,,,,,,,,,,
,12299,0.25702887773513794,102,,,,,,,,,,,,,,
,12349,0.16837501525878906,102,,,,,,,,,,,,,,
,12359,,102,1.051744818687439,21.333629608154297,5.826318264007568,1.6614975929260254,13.845812797546387,,,,,,,,,
,12359,,102,,,,,,3.9333736896514893,2.6479663848876953,0.6764576435089111,0.608949601650238,,,,,
0.0002539926450768586,12360,,,,,,,,,,,,,,,,
,12399,0.15625318884849548,103,,,,,,,,,,,,,,
,12449,0.2112276405096054,103,,,,,,,,,,,,,,
,12479,,103,1.0552945137023926,20.957021713256836,5.737704753875732,1.6836508512496948,13.535666465759277,,,,,,,,,
,12479,,103,,,,,,3.7903878688812256,2.4916510581970215,0.7091516256332397,0.5895853638648987,,,,,
0.0002443068109357498,12480,,,,,,,,,,,,,,,,
,12499,0.17644992470741272,104,,,,,,,,,,,,,,
,12549,0.2424851357936859,104,,,,,,,,,,,,,,
,12599,0.22347532212734222,104,,,,,,,,,,,,,,
,12599,,104,1.064765453338623,20.890562057495117,5.20602560043335,1.9937970638275146,13.690739631652832,,,,,,,,,
,12599,,104,,,,,,3.4928901195526123,2.3313491344451904,0.6407076716423035,0.5208333134651184,,,,,
0.00023474997778058935,12600,,,,,,,,,,,,,,,,
,12649,0.1992458999156952,105,,,,,,,,,,,,,,
,12699,0.4069153070449829,105,,,,,,,,,,,,,,
,12719,,105,1.0403883457183838,21.887460708618164,6.468763828277588,1.7058041095733643,13.71289348602295,,,,,,,,,
,12719,,105,,,,,,3.5828332901000977,2.3784615993499756,0.7033529877662659,0.5010185837745667,,,,,
0.00022532695776467476,12720,,,,,,,,,,,,,,,,
,12749,0.2169138491153717,106,,,,,,,,,,,,,,
,12799,0.20110084116458893,106,,,,,,,,,,,,,,
,12839,,106,1.06065034866333,21.577314376831055,6.114311218261719,1.8165706396102905,13.646432876586914,,,,,,,,,
,12839,,106,,,,,,3.6667957305908203,2.4947478771209717,0.6578947305679321,0.514153003692627,,,,,
0.00021604249566235817,12840,,,,,,,,,,,,,,,,
,12849,0.17211535573005676,107,,,,,,,,,,,,,,
,12899,0.1889176070690155,107,,,,,,,,,,,,,,
,12949,0.23801466822624207,107,,,,,,,,,,,,,,
,12959,,107,1.0545990467071533,20.846256256103516,5.981391429901123,1.5728843212127686,13.291980743408203,,,,,,,,,
,12959,,107,,,,,,3.521947145462036,2.3680639266967773,0.645461916923523,0.5084211826324463,,,,,
0.00020690126647990965,12960,,,,,,,,,,,,,,,,
,12999,0.23421643674373627,108,,,,,,,,,,,,,,
,13049,0.1994856297969818,108,,,,,,,,,,,,,,
,13079,,108,1.0462316274642944,21.466548919677734,6.1364641189575195,1.7279574871063232,13.602127075195312,,,,,,,,,
,13079,,108,,,,,,3.3447258472442627,2.2504892349243164,0.6311843395233154,0.46305227279663086,,,,,
0.00019790787310151043,13080,,,,,,,,,,,,,,,,
,13099,0.13793043792247772,109,,,,,,,,,,,,,,
,13149,0.18785405158996582,109,,,,,,,,,,,,,,
,13199,0.21925729513168335,109,,,,,,,,,,,,,,
,13199,,109,1.078790307044983,21.06778907775879,5.405405521392822,1.9051839113235474,13.757200241088867,,,,,,,,,
,13199,,109,,,,,,3.557605266571045,2.4760491847991943,0.6313651204109192,0.45019078254699707,,,,,
0.00018906684397156255,13200,,,,,,,,,,,,,,,,
,13249,0.12355197221040726,110,,,,,,,,,,,,,,
,13299,0.20595158636569977,110,,,,,,,,,,,,,,
,13319,,110,1.071231722831726,20.33673095703125,5.449711799621582,1.794417381286621,13.09260082244873,,,,,,,,,
,13319,,110,,,,,,3.421247959136963,2.289541006088257,0.7068012356758118,0.42490580677986145,,,,,
0.00018038263081448039,13320,,,,,,,,,,,,,,,,
,13349,0.15496256947517395,111,,,,,,,,,,,,,,
,13399,0.252785861492157,111,,,,,,,,,,,,,,
,13439,,111,1.0564219951629639,20.469650268554688,5.649091720581055,1.9273371696472168,12.893220901489258,,,,,,,,,
,13439,,111,,,,,,3.4046947956085205,2.35286021232605,0.6305500268936157,0.4212844967842102,,,,,
0.0001718596063931135,13440,,,,,,,,,,,,,,,,
,13449,0.24957144260406494,112,,,,,,,,,,,,,,
,13499,0.29401716589927673,112,,,,,,,,,,,,,,
,13549,0.3058652877807617,112,,,,,,,,,,,,,,
,13559,,112,1.0547785758972168,21.134248733520508,6.911829948425293,1.3291980028152466,12.893220901489258,,,,,,,,,
,13559,,112,,,,,,3.3055810928344727,2.3399672508239746,0.6350556015968323,0.3305581212043762,,,,,
0.00016350206230692882,13560,,,,,,,,,,,,,,,,
,13599,0.1062314510345459,113,,,,,,,,,,,,,,
,13649,0.12305799126625061,113,,,,,,,,,,,,,,
,13679,,113,1.0573922395706177,21.11209487915039,5.4940185546875,1.6614975929260254,13.956579208374023,,,,,,,,,
,13679,,113,,,,,,3.374203681945801,2.339374542236328,0.6330071687698364,0.40182197093963623,,,,,
0.00015531420683106105,13680,,,,,,,,,,,,,,,,
,13699,0.22546164691448212,114,,,,,,,,,,,,,,
,13749,0.12410463392734528,114,,,,,,,,,,,,,,
,13799,0.09773334860801697,114,,,,,,,,,,,,,,
,13799,,114,1.0589560270309448,20.624723434448242,5.937084674835205,1.5285778045654297,13.15906047821045,,,,,,,,,
,13799,,114,,,,,,3.041935443878174,2.227254629135132,0.5564684271812439,0.2582123875617981,,,,,
0.0001473001627973195,13800,,,,,,,,,,,,,,,,
,13849,0.15779545903205872,115,,,,,,,,,,,,,,
,13899,0.15575288236141205,115,,,,,,,,,,,,,,
,13919,,115,1.0663201808929443,20.425342559814453,5.516171932220459,1.7279574871063232,13.181214332580566,,,,,,,,,
,13919,,115,,,,,,3.018562078475952,2.1598451137542725,0.5468310117721558,0.3118860125541687,,,,,
0.0001394639655182179,13920,,,,,,,,,,,,,,,,
,13949,0.13027256727218628,116,,,,,,,,,,,,,,
,13999,0.16999714076519012,116,,,,,,,,,,,,,,
,14039,,116,1.0532180070877075,20.536109924316406,5.959238052368164,1.4621179103851318,13.114753723144531,,,,,,,,,
,14039,,116,,,,,,2.9871878623962402,2.15687894821167,0.5498735308647156,0.2804355025291443,,,,,
0.00013180956075507333,14040,,,,,,,,,,,,,,,,
,14049,0.19683866202831268,117,,,,,,,,,,,,,,
,14099,0.1662178486585617,117,,,,,,,,,,,,,,
,14149,0.13695907592773438,117,,,,,,,,,,,,,,
,14159,,117,1.0751471519470215,21.11209487915039,7.111209392547607,1.3070447444915771,12.693840980529785,,,,,,,,,
,14159,,117,,,,,,2.8988890647888184,2.0969226360321045,0.5506653189659119,0.2513011395931244,,,,,
0.0001243408027311963,14160,,,,,,,,,,,,,,,,
,14199,0.1119752898812294,118,,,,,,,,,,,,,,
,14249,0.20721930265426636,118,,,,,,,,,,,,,,
,14279,,118,1.0872232913970947,20.8241024017334,5.870624542236328,1.6836508512496948,13.269826889038086,,,,,,,,,
,14279,,118,,,,,,2.964777708053589,2.1705918312072754,0.5533150434494019,0.24087098240852356,,,,,
0.00011706145219117339,14280,,,,,,,,,,,,,,,,
,14299,0.1264973282814026,119,,,,,,,,,,,,,,
,14349,0.15884849429130554,119,,,,,,,,,,,,,,
,14399,0.11116772890090942,119,,,,,,,,,,,,,,
,14399,,119,1.0897228717803955,20.624723434448242,5.737704753875732,1.5728843212127686,13.314133644104004,,,,,,,,,
,14399,,119,,,,,,2.88893461227417,2.086681842803955,0.5618517994880676,0.24040113389492035,,,,,
0.0001099751745072191,14400,,,,,,,,,,,,,,,,
,14449,0.2086879014968872,120,,,,,,,,,,,,,,
,14499,0.12453532963991165,120,,,,,,,,,,,,,,
,14519,,120,1.0503289699554443,20.957021713256836,5.826318264007568,1.8830305337905884,13.247673988342285,,,,,,,,,
,14519,,120,,,,,,2.8589940071105957,2.1242573261260986,0.53623366355896,0.19850295782089233,,,,,
0.00010308553783355037,14520,,,,,,,,,,,,,,,,
,14549,0.16104023158550262,121,,,,,,,,,,,,,,
,14599,0.10362738370895386,121,,,,,,,,,,,,,,
,14639,,121,1.0371469259262085,20.624723434448242,5.737704753875732,1.6836508512496948,13.203367233276367,,,,,,,,,
,14639,,121,,,,,,2.7286765575408936,2.036510944366455,0.5170559287071228,0.1751096099615097,,,,,
9.639601130971375e-05,14640,,,,,,,,,,,,,,,,
,14649,0.19948279857635498,122,,,,,,,,,,,,,,
,14699,0.23244453966617584,122,,,,,,,,,,,,,,
,14749,0.1152620017528534,122,,,,,,,,,,,,,,
,14759,,122,1.0610463619232178,20.181657791137695,5.383252143859863,1.5728843212127686,13.225520133972168,,,,,,,,,
,14759,,122,,,,,,2.838361978530884,2.1287713050842285,0.5156907439231873,0.1938997209072113,,,,,
8.990996331376899e-05,14760,,,,,,,,,,,,,,,,
,14799,0.1325322389602661,123,,,,,,,,,,,,,,
,14849,0.22174890339374542,123,,,,,,,,,,,,,,
,14879,,123,1.0801823139190674,21.045635223388672,6.513070583343506,1.3513513803482056,13.181214332580566,,,,,,,,,
,14879,,123,,,,,,2.8775594234466553,2.1451146602630615,0.5537996292114258,0.1786450445652008,,,,,
8.363065976620927e-05,14880,,,,,,,,,,,,,,,,
,14899,0.12193085253238678,124,,,,,,,,,,,,,,
,14949,0.1300887018442154,124,,,,,,,,,,,,,,
,14999,0.15719424188137054,124,,,,,,,,,,,,,,
,14999,,124,1.0561245679855347,20.44749641418457,5.737704753875732,1.6614975929260254,13.048294067382812,,,,,,,,,
,14999,,124,,,,,,2.681691884994507,1.9827183485031128,0.5297338962554932,0.16923965513706207,,,,,
7.756126248547202e-05,15000,,,,,,,,,,,,,,,,
,15049,0.14355182647705078,125,,,,,,,,,,,,,,
,15099,0.2608543038368225,125,,,,,,,,,,,,,,
,15119,,125,1.077212929725647,21.134248733520508,6.313690662384033,1.6393442153930664,13.181214332580566,,,,,,,,,
,15119,,125,,,,,,2.7593514919281006,2.024441957473755,0.5518702864646912,0.18303927779197693,,,,,
7.170482759586783e-05,15120,,,,,,,,,,,,,,,,
,15149,0.1554468274116516,126,,,,,,,,,,,,,,
,15199,0.20138046145439148,126,,,,,,,,,,,,,,
,15239,,126,1.0689033269882202,20.868410110473633,5.848471641540527,1.5064244270324707,13.513513565063477,,,,,,,,,
,15239,,126,,,,,,2.739631414413452,2.0474703311920166,0.5332817435264587,0.15887928009033203,,,,,
6.606430398873013e-05,15240,,,,,,,,,,,,,,,,
,15249,0.21638552844524384,127,,,,,,,,,,,,,,
,15299,0.14688004553318024,127,,,,,,,,,,,,,,
,15349,0.1324003040790558,127,,,,,,,,,,,,,,
,15359,,127,1.0748037099838257,20.80194854736328,6.070004463195801,1.7501107454299927,12.981834411621094,,,,,,,,,
,15359,,127,,,,,,2.825270652770996,2.121016263961792,0.5639537572860718,0.1403006762266159,,,,,
6.064253183755932e-05,15360,,,,,,,,,,,,,,,,
,15399,0.12182416021823883,128,,,,,,,,,,,,,,
,15449,0.17385488748550415,128,,,,,,,,,,,,,,
,15479,,128,1.0439940690994263,21.333629608154297,6.933983325958252,1.4842711687088013,12.915374755859375,,,,,,,,,
,15479,,128,,,,,,2.662043333053589,2.0182902812957764,0.49870145320892334,0.14505167305469513,,,,,
5.544224116791025e-05,15480,,,,,,,,,,,,,,,,
,15499,0.17169058322906494,129,,,,,,,,,,,,,,
,15549,0.15856307744979858,129,,,,,,,,,,,,,,
,15599,0.16993705928325653,129,,,,,,,,,,,,,,
,15599,,129,1.0619394779205322,20.51395606994629,5.671245098114014,1.6836508512496948,13.15906047821045,,,,,,,,,
,15599,,129,,,,,,2.651676654815674,2.0118067264556885,0.5063918232917786,0.1334782838821411,,,,,
5.046605048274165e-05,15600,,,,,,,,,,,,,,,,
,15649,0.17378509044647217,130,,,,,,,,,,,,,,
,15699,0.23743416368961334,130,,,,,,,,,,,,,,
,15719,,130,1.0695321559906006,21.06778907775879,6.446610450744629,1.4842711687088013,13.136907577514648,,,,,,,,,
,15719,,130,,,,,,2.7594473361968994,2.066485643386841,0.5441745519638062,0.1487869769334793,,,,,
4.571646544392144e-05,15720,,,,,,,,,,,,,,,,
,15749,0.24796020984649658,131,,,,,,,,,,,,,,
,15799,0.13895516097545624,131,,,,,,,,,,,,,,
,15839,,131,1.053351640701294,20.558263778686523,6.1586174964904785,1.6614975929260254,12.738147735595703,,,,,,,,,
,15839,,131,,,,,,2.667492151260376,2.027789354324341,0.5090108513832092,0.13069197535514832,,,,,
4.119587761055041e-05,15840,,,,,,,,,,,,,,,,
,15849,0.0788722038269043,132,,,,,,,,,,,,,,
,15899,0.13388624787330627,132,,,,,,,,,,,,,,
,15949,0.08767937123775482,132,,,,,,,,,,,,,,
,15959,,132,1.0564645528793335,20.93486976623535,5.937084674835205,1.7058041095733643,13.291980743408203,,,,,,,,,
,15959,,132,,,,,,2.4940812587738037,1.8939602375030518,0.4900071620941162,0.1101139709353447,,,,,
3.690656323474007e-05,15960,,,,,,,,,,,,,,,,
,15999,0.18730288743972778,133,,,,,,,,,,,,,,
,16049,0.11935634166002274,133,,,,,,,,,,,,,,
,16079,,133,1.051178216934204,20.735488891601562,6.42445707321167,1.5285778045654297,12.782454490661621,,,,,,,,,
,16079,,133,,,,,,2.411048650741577,1.8162039518356323,0.5012117028236389,0.09363295882940292,,,,,
3.2850682115451246e-05,16080,,,,,,,,,,,,,,,,
,16099,0.11965662240982056,134,,,,,,,,,,,,,,
,16149,0.21566662192344666,134,,,,,,,,,,,,,,
,16199,0.11489041894674301,134,,,,,,,,,,,,,,
,16199,,134,1.061357021331787,20.779796600341797,6.6681437492370605,1.3956578969955444,12.715994834899902,,,,,,,,,
,16199,,134,,,,,,2.507136583328247,1.8962117433547974,0.4895673990249634,0.12135755270719528,,,,,
2.903027651097038e-05,16200,,,,,,,,,,,,,,,,
,16249,0.1227492168545723,135,,,,,,,,,,,,,,
,16299,0.09722763299942017,135,,,,,,,,,,,,,,
,16319,,135,1.062859058380127,20.580415725708008,6.09215784072876,1.5285778045654297,12.959680557250977,,,,,,,,,
,16319,,135,,,,,,2.6565699577331543,2.0106372833251953,0.5469812750816345,0.09895139187574387,,,,,
2.5447270110570797e-05,16320,,,,,,,,,,,,,,,,
,16349,0.1805218607187271,136,,,,,,,,,,,,,,
,16399,0.15927252173423767,136,,,,,,,,,,,,,,
,16439,,136,1.066301941871643,20.558263778686523,6.42445707321167,1.373504638671875,12.76030158996582,,,,,,,,,
,16439,,136,,,,,,2.5207996368408203,1.9261282682418823,0.4994688034057617,0.09520261734724045,,,,,
2.2103467065877228e-05,16440,,,,,,,,,,,,,,,,
,16449,0.09688007831573486,137,,,,,,,,,,,,,,
,16499,0.13458828628063202,137,,,,,,,,,,,,,,
,16549,0.1396593451499939,137,,,,,,,,,,,,,,
,16559,,137,1.0537192821502686,20.779796600341797,6.446610450744629,1.4621179103851318,12.871068000793457,,,,,,,,,
,16559,,137,,,,,,2.5172789096832275,1.9442956447601318,0.48641741275787354,0.08656580746173859,,,,,
1.9000551082421295e-05,16560,,,,,,,,,,,,,,,,
,16599,0.07540397346019745,138,,,,,,,,,,,,,,
,16649,0.0892859548330307,138,,,,,,,,,,,,,,
,16679,,138,1.0501792430877686,20.80194854736328,6.690296649932861,1.2848914861679077,12.826761245727539,,,,,,,,,
,16679,,138,,,,,,2.5722854137420654,1.9381550550460815,0.522710382938385,0.11141984909772873,,,,,
1.6140084571844897e-05,16680,,,,,,,,,,,,,,,,
,16699,0.16905216872692108,139,,,,,,,,,,,,,,
,16749,0.18355391919612885,139,,,,,,,,,,,,,,
,16799,0.25555703043937683,139,,,,,,,,,,,,,,
,16799,,139,1.0523619651794434,20.44749641418457,6.71245002746582,1.3513513803482056,12.383695602416992,,,,,,,,,
,16799,,139,,,,,,2.396315813064575,1.859971284866333,0.43983012437820435,0.09651444852352142,,,,,
1.3523507865179094e-05,16800,,,,,,,,,,,,,,,,
,16849,0.0663280040025711,140,,,,,,,,,,,,,,
,16899,0.1317882388830185,140,,,,,,,,,,,,,,
,16919,,140,1.054394245147705,20.469650268554688,6.402304172515869,1.4178112745285034,12.649535179138184,,,,,,,,,
,16919,,140,,,,,,2.487294912338257,1.9198721647262573,0.47377046942710876,0.09365230053663254,,,,,
1.1152138487593872e-05,16920,,,,,,,,,,,,,,,,
,16949,0.1474672108888626,141,,,,,,,,,,,,,,
,16999,0.10320240259170532,141,,,,,,,,,,,,,,
,17039,,141,1.054045557975769,20.558263778686523,6.579530239105225,1.4178112745285034,12.560921669006348,,,,,,,,,
,17039,,141,,,,,,2.3472044467926025,1.801727294921875,0.45043182373046875,0.09504524618387222,,,,,
9.027170494984476e-06,17040,,,,,,,,,,,,,,,,
,17049,0.11888193339109421,142,,,,,,,,,,,,,,
,17099,0.1680145561695099,142,,,,,,,,,,,,,,
,17149,0.10892163962125778,142,,,,,,,,,,,,,,
,17159,,142,1.047984004020691,20.75764274597168,6.756756782531738,1.373504638671875,12.627381324768066,,,,,,,,,
,17159,,142,,,,,,2.4561402797698975,1.8961127996444702,0.47746819257736206,0.08255933970212936,,,,,
7.149673872728734e-06,17160,,,,,,,,,,,,,,,,
,17199,0.08978016674518585,143,,,,,,,,,,,,,,
,17249,0.14911091327667236,143,,,,,,,,,,,,,,
,17279,,143,1.0525966882705688,20.75764274597168,6.601683616638184,1.4621179103851318,12.693840980529785,,,,,,,,,
,17279,,143,,,,,,2.4870026111602783,1.9190934896469116,0.4787445664405823,0.08916445821523666,,,,,
5.520593996916613e-06,17280,,,,,,,,,,,,,,,,
,17299,0.19986164569854736,144,,,,,,,,,,,,,,
,17349,0.10378596931695938,144,,,,,,,,,,,,,,
,17399,0.14998281002044678,144,,,,,,,,,,,,,,
,17399,,144,1.0555373430252075,20.669029235839844,6.557376861572266,1.4842711687088013,12.627381324768066,,,,,,,,,
,17399,,144,,,,,,2.4344208240509033,1.8626694679260254,0.4877108037471771,0.0840405598282814,,,,,
4.140751158325317e-06,17400,,,,,,,,,,,,,,,,
,17449,0.13803797960281372,145,,,,,,,,,,,,,,
,17499,0.15411165356636047,145,,,,,,,,,,,,,,
,17519,,145,1.0558117628097534,20.713336944580078,6.734603404998779,1.3513513803482056,12.627381324768066,,,,,,,,,
,17519,,145,,,,,,2.3781049251556396,1.8255047798156738,0.48799264430999756,0.06460747867822647,,,,,
3.010840149378084e-06,17520,,,,,,,,,,,,,,,,
,17549,0.19038376212120056,146,,,,,,,,,,,,,,
,17599,0.20790770649909973,146,,,,,,,,,,,,,,
,17639,,146,1.055527925491333,20.8241024017334,6.645990371704102,1.4178112745285034,12.76030158996582,,,,,,,,,
,17639,,146,,,,,,2.3977608680725098,1.877947211265564,0.4384634494781494,0.08135013282299042,,,,,
2.1314299142951862e-06,17640,,,,,,,,,,,,,,,,
,17649,0.10017356276512146,147,,,,,,,,,,,,,,
,17699,0.06618848443031311,147,,,,,,,,,,,,,,
,17749,0.20167389512062073,147,,,,,,,,,,,,,,
,17759,,147,1.053194284439087,20.491804122924805,6.468763828277588,1.4178112745285034,12.605228424072266,,,,,,,,,
,17759,,147,,,,,,2.4004950523376465,1.8368048667907715,0.48944801092147827,0.07424211502075195,,,,,
1.5029632626133622e-06,17760,,,,,,,,,,,,,,,,
,17799,0.10709753632545471,148,,,,,,,,,,,,,,
,17849,0.10267936438322067,148,,,,,,,,,,,,,,
,17879,,148,1.0525022745132446,20.602569580078125,6.601683616638184,1.3070447444915771,12.693840980529785,,,,,,,,,
,17879,,148,,,,,,2.50337553024292,1.921964168548584,0.47532445192337036,0.10608690977096558,,,,,
1.1257566462179877e-06,17880,,,,,,,,,,,,,,,,
,17899,0.1814604103565216,149,,,,,,,,,,,,,,
,17949,0.09856362640857697,149,,,,,,,,,,,,,,
,17999,0.244582861661911,149,,,,,,,,,,,,,,
,17999,,149,1.0556070804595947,20.580415725708008,6.690296649932861,1.3513513803482056,12.53876781463623,,,,,,,,,
,17999,,149,,,,,,2.439326763153076,1.836037516593933,0.5261563062667847,0.07713285833597183,,,,,
,18000,,150,1.0610463619232178,20.181657791137695,5.383252143859863,1.5728843212127686,13.225520133972168,,,,,,,,,
,18000,,150,,,,,,,,,,1.172406554222107,22.36870574951172,5.078884601593018,2.0315539836883545,15.25826644897461
