lr-Adam,step,train/loss,epoch,val/loss,val/CER,val/IER,val/DER,val/SER,train/CER,train/IER,train/DER,train/SER,test/loss,test/CER,test/IER,test/DER,test/SER
1e-08,0,,,,,,,,,,,,,,,,
,49,101.81615447998047,0,,,,,,,,,,,,,,
,99,114.05709838867188,0,,,,,,,,,,,,,,
,119,,0,106.29704284667969,1291.1829833984375,0.0,1214.6876220703125,76.49534606933594,,,,,,,,,
,119,,0,,,,,,1493.310302734375,0.0,1418.5166015625,74.79370880126953,,,,,
0.00011112,120,,,,,,,,,,,,,,,,
,149,7.215277671813965,1,,,,,,,,,,,,,,
,199,3.4603347778320312,1,,,,,,,,,,,,,,
,239,,1,3.348987102508545,100.0,100.0,0.0,0.0,,,,,,,,,
,239,,1,,,,,,128.8349151611328,94.04183959960938,30.02737045288086,4.7657036781311035,,,,,
0.00022223000000000002,240,,,,,,,,,,,,,,,,
,249,3.6566944122314453,2,,,,,,,,,,,,,,
,299,3.5438363552093506,2,,,,,,,,,,,,,,
,349,3.280226230621338,2,,,,,,,,,,,,,,
,359,,2,3.2484960556030273,100.0,100.0,0.0,0.0,,,,,,,,,
,359,,2,,,,,,100.0,100.0,0.0,0.0,,,,,
0.00033334,360,,,,,,,,,,,,,,,,
,399,3.318575859069824,3,,,,,,,,,,,,,,
,449,3.2572336196899414,3,,,,,,,,,,,,,,
,479,,3,3.1356663703918457,100.0,100.0,0.0,0.0,,,,,,,,,
,479,,3,,,,,,100.0,100.0,0.0,0.0,,,,,
0.00044445,480,,,,,,,,,,,,,,,,
,499,3.1302740573883057,4,,,,,,,,,,,,,,
,549,3.0736870765686035,4,,,,,,,,,,,,,,
,599,3.125880479812622,4,,,,,,,,,,,,,,
,599,,4,3.0895869731903076,100.0,100.0,0.0,0.0,,,,,,,,,
,599,,4,,,,,,100.0,100.0,0.0,0.0,,,,,
0.00055556,600,,,,,,,,,,,,,,,,
,649,3.1337924003601074,5,,,,,,,,,,,,,,
,699,3.5402262210845947,5,,,,,,,,,,,,,,
,719,,5,3.091024398803711,100.0,100.0,0.0,0.0,,,,,,,,,
,719,,5,,,,,,100.0,100.0,0.0,0.0,,,,,
0.00066667,720,,,,,,,,,,,,,,,,
,749,3.0249414443969727,6,,,,,,,,,,,,,,
,799,3.028609275817871,6,,,,,,,,,,,,,,
,839,,6,2.956493377685547,100.0,100.0,0.0,0.0,,,,,,,,,
,839,,6,,,,,,99.99723815917969,99.99723815917969,0.0,0.0,,,,,
0.0007777799999999999,840,,,,,,,,,,,,,,,,
,849,3.013920307159424,7,,,,,,,,,,,,,,
,899,2.8682665824890137,7,,,,,,,,,,,,,,
,949,2.833461284637451,7,,,,,,,,,,,,,,
,959,,7,2.893159866333008,99.55693054199219,99.51262664794922,0.0,0.04430660232901573,,,,,,,,,
,959,,7,,,,,,99.96418762207031,99.96418762207031,0.0,0.0,,,,,
0.0008888899999999999,960,,,,,,,,,,,,,,,,
,999,3.0309529304504395,8,,,,,,,,,,,,,,
,1049,3.0248515605926514,8,,,,,,,,,,,,,,
,1079,,8,2.6175739765167236,98.6707992553711,98.58219146728516,0.0,0.08861320465803146,,,,,,,,,
,1079,,8,,,,,,99.27409362792969,99.22303009033203,0.0,0.051061950623989105,,,,,
0.001,1080,,,,,,,,,,,,,,,,
,1099,2.5955212116241455,9,,,,,,,,,,,,,,
,1149,2.7907328605651855,9,,,,,,,,,,,,,,
,1199,2.5469136238098145,9,,,,,,,,,,,,,,
,1199,,9,2.4437060356140137,91.16083526611328,90.36331176757812,0.0,0.7975188493728638,,,,,,,,,
,1199,,9,,,,,,95.93218231201172,95.58953094482422,0.0,0.3426542580127716,,,,,
0.001,1200,,,,,,,,,,,,,,,,
,1249,2.557985544204712,10,,,,,,,,,,,,,,
,1299,2.4930472373962402,10,,,,,,,,,,,,,,
,1319,,10,2.2904891967773438,92.17988586425781,91.9583511352539,0.0,0.22153301537036896,,,,,,,,,
,1319,,10,,,,,,91.15904998779297,90.4802474975586,0.0,0.6788045167922974,,,,,
0.000999874243353782,1320,,,,,,,,,,,,,,,,
,1349,2.177565813064575,11,,,,,,,,,,,,,,
,1399,2.2590301036834717,11,,,,,,,,,,,,,,
,1439,,11,2.11980938911438,86.77448272705078,85.64466094970703,0.0,1.129818320274353,,,,,,,,,
,1439,,11,,,,,,88.39118957519531,87.57266998291016,0.0027421300765126944,0.815783679485321,,,,,
0.0009994970367373866,1440,,,,,,,,,,,,,,,,
,1449,2.1874427795410156,12,,,,,,,,,,,,,,
,1499,2.090007781982422,12,,,,,,,,,,,,,,
,1549,2.19345760345459,12,,,,,,,,,,,,,,
,1559,,12,1.9827055931091309,82.52104187011719,81.32476806640625,0.0,1.1962782144546509,,,,,,,,,
,1559,,12,,,,,,86.50045013427734,85.67992401123047,0.0013744193129241467,0.819153904914856,,,,,
0.0009988685700857047,1560,,,,,,,,,,,,,,,,
,1599,1.9501605033874512,13,,,,,,,,,,,,,,
,1649,2.0384697914123535,13,,,,,,,,,,,,,,
,1679,,13,1.833917260169983,74.61231994628906,70.66902923583984,0.0,3.9432876110076904,,,,,,,,,
,1679,,13,,,,,,83.72562408447266,82.4917221069336,0.002748121041804552,1.2311581373214722,,,,,
0.0009979891598506218,1680,,,,,,,,,,,,,,,,
,1699,2.001206398010254,14,,,,,,,,,,,,,,
,1749,1.964554786682129,14,,,,,,,,,,,,,,
,1799,1.84847891330719,14,,,,,,,,,,,,,,
,1799,,14,1.6776765584945679,69.84935760498047,63.136905670166016,0.022153301164507866,6.690296649932861,,,,,,,,,
,1799,,14,,,,,,75.92399597167969,71.41600799560547,0.017861559987068176,4.490121364593506,,,,,
0.0009968592488416746,1800,,,,,,,,,,,,,,,,
,1849,1.8538520336151123,15,,,,,,,,,,,,,,
,1899,1.6597681045532227,15,,,,,,,,,,,,,,
,1919,,15,1.5375490188598633,64.88701629638672,55.759857177734375,0.06645990163087845,9.060700416564941,,,,,,,,,
,1919,,15,,,,,,69.47016143798828,60.67825698852539,0.038694340735673904,8.753212928771973,,,,,
0.0009954794060030834,1920,,,,,,,,,,,,,,,,
,1949,1.650559663772583,16,,,,,,,,,,,,,,
,1999,1.5646655559539795,16,,,,,,,,,,,,,,
,2039,,16,1.5195591449737549,64.44395446777344,56.933982849121094,0.06645990163087845,7.443509101867676,,,,,,,,,
,2039,,16,,,,,,65.0951156616211,55.0119743347168,0.10324037075042725,9.979902267456055,,,,,
0.0009938503261272714,2040,,,,,,,,,,,,,,,,
,2049,1.583488941192627,17,,,,,,,,,,,,,,
,2099,1.3164280652999878,17,,,,,,,,,,,,,,
,2149,1.3511446714401245,17,,,,,,,,,,,,,,
,2159,,17,1.2515382766723633,39.67656326293945,19.672130584716797,1.4399645328521729,18.56446647644043,,,,,,,,,
,2159,,17,,,,,,53.634918212890625,37.11858367919922,0.48484012484550476,16.031494140625,,,,,
0.0009919728295050155,2160,,,,,,,,,,,,,,,,
,2199,1.4163118600845337,18,,,,,,,,,,,,,,
,2249,1.4084535837173462,18,,,,,,,,,,,,,,
,2279,,18,1.186984896659851,37.59415054321289,17.922019958496094,1.2184315919876099,18.453699111938477,,,,,,,,,
,2279,,18,,,,,,43.21752166748047,22.735610961914062,1.1034026145935059,19.378507614135742,,,,,
0.0009898478615124062,2280,,,,,,,,,,,,,,,,
,2299,1.207843542098999,19,,,,,,,,,,,,,,
,2349,1.2092515230178833,19,,,,,,,,,,,,,,
,2399,1.3098924160003662,19,,,,,,,,,,,,,,
,2399,,19,1.1096566915512085,32.941959381103516,11.984935760498047,1.7722641229629517,19.18475914001465,,,,,,,,,
,2399,,19,,,,,,39.85714340209961,19.11263656616211,1.3214285373687744,19.423076629638672,,,,,
0.000987476492134821,2400,,,,,,,,,,,,,,,,
,2449,1.3863085508346558,20,,,,,,,,,,,,,,
,2499,1.1890848875045776,20,,,,,,,,,,,,,,
,2519,,20,1.0897783041000366,35.46743392944336,16.614974975585938,0.8861320614814758,17.966327667236328,,,,,,,,,
,2519,,20,,,,,,36.86811065673828,16.119131088256836,1.5359418392181396,19.213035583496094,,,,,
0.0009848599154281552,2520,,,,,,,,,,,,,,,,
,2549,1.1914947032928467,21,,,,,,,,,,,,,,
,2599,1.1230170726776123,21,,,,,,,,,,,,,,
,2639,,21,1.0483359098434448,32.12228775024414,11.143110275268555,1.2627381086349487,19.71643829345703,,,,,,,,,
,2639,,21,,,,,,35.00392532348633,14.918283462524414,1.6302027702331543,18.4554386138916,,,,,
0.0009819994489175788,2640,,,,,,,,,,,,,,,,
,2649,1.1571881771087646,22,,,,,,,,,,,,,,
,2699,0.9536021947860718,22,,,,,,,,,,,,,,
,2749,1.0456671714782715,22,,,,,,,,,,,,,,
,2759,,22,1.0134081840515137,30.83739471435547,9.79175853729248,1.8830305337905884,19.16260528564453,,,,,,,,,
,2759,,22,,,,,,33.18202590942383,13.314201354980469,1.763269305229187,18.104555130004883,,,,,
0.0009788965329341228,2760,,,,,,,,,,,,,,,,
,2799,0.9903234243392944,23,,,,,,,,,,,,,,
,2849,1.1553699970245361,23,,,,,,,,,,,,,,
,2879,,23,0.9375168681144714,29.087284088134766,11.342490196228027,1.151971697807312,16.592823028564453,,,,,,,,,
,2879,,23,,,,,,31.904682159423828,12.379337310791016,1.7016934156417847,17.823652267456055,,,,,
0.0009755527298894293,2880,,,,,,,,,,,,,,,,
,2899,1.0425238609313965,24,,,,,,,,,,,,,,
,2949,1.0557363033294678,24,,,,,,,,,,,,,,
,2999,1.0378000736236572,24,,,,,,,,,,,,,,
,2999,,24,0.8872202634811401,28.93221092224121,10.4120512008667,1.1962782144546509,17.323881149291992,,,,,,,,,
,2999,,24,,,,,,29.962438583374023,11.18467903137207,1.6970993280410767,17.080659866333008,,,,,
0.0009719697234890296,3000,,,,,,,,,,,,,,,,
,3049,1.01243257522583,25,,,,,,,,,,,,,,
,3099,1.0350518226623535,25,,,,,,,,,,,,,,
,3119,,25,0.8898428678512573,26.761186599731445,8.130261421203613,1.7501107454299927,16.880815505981445,,,,,,,,,
,3119,,25,,,,,,29.452301025390625,10.9154052734375,1.7117340564727783,16.82516098022461,,,,,
0.0009681493178845487,3120,,,,,,,,,,,,,,,,
,3149,0.9865362644195557,26,,,,,,,,,,,,,,
,3199,1.0051829814910889,26,,,,,,,,,,,,,,
,3239,,26,0.892633855342865,27.027027130126953,7.421355724334717,1.7279574871063232,17.877714157104492,,,,,,,,,
,3239,,26,,,,,,27.7938232421875,9.900431632995605,1.8469620943069458,16.046428680419922,,,,,
0.0009640934367652599,3240,,,,,,,,,,,,,,,,
,3249,0.8911276459693909,27,,,,,,,,,,,,,,
,3299,1.0829417705535889,27,,,,,,,,,,,,,,
,3349,0.8878805041313171,27,,,,,,,,,,,,,,
,3359,,27,0.9160323143005371,28.001771926879883,10.788657188415527,1.3956578969955444,15.81745719909668,,,,,,,,,
,3359,,27,,,,,,27.42381477355957,9.702138900756836,1.9082341194152832,15.813441276550293,,,,,
0.0009598041223894496,3360,,,,,,,,,,,,,,,,
,3399,0.7920769453048706,28,,,,,,,,,,,,,,
,3449,0.8843111991882324,28,,,,,,,,,,,,,,
,3479,,28,0.814237117767334,24.501550674438477,6.09215784072876,1.5950376987457275,16.814355850219727,,,,,,,,,
,3479,,28,,,,,,26.994661331176758,9.457651138305664,1.8763538599014282,15.660655975341797,,,,,
0.0009552835345560785,3480,,,,,,,,,,,,,,,,
,3499,0.9034792184829712,29,,,,,,,,,,,,,,
,3549,0.7716616988182068,29,,,,,,,,,,,,,,
,3599,0.9240947365760803,29,,,,,,,,,,,,,,
,3599,,29,0.8375826478004456,25.498449325561523,8.24102783203125,1.2184315919876099,16.038990020751953,,,,,,,,,
,3599,,29,,,,,,25.88674545288086,8.861248016357422,1.8458062410354614,15.17969036102295,,,,,
0.0009505339495172582,3600,,,,,,,,,,,,,,,,
,3649,0.8275691270828247,30,,,,,,,,,,,,,,
,3699,0.7843446731567383,30,,,,,,,,,,,,,,
,3719,,30,0.8183579444885254,23.74833869934082,6.1364641189575195,1.9273371696472168,15.684536933898926,,,,,,,,,
,3719,,30,,,,,,24.566112518310547,8.562148094177246,1.8098738193511963,14.194089889526367,,,,,
0.0009455577588320895,3720,,,,,,,,,,,,,,,,
,3749,0.967271089553833,31,,,,,,,,,,,,,,
,3799,0.8935025334358215,31,,,,,,,,,,,,,,
,3839,,31,0.7944625020027161,23.881258010864258,7.399202346801758,1.4621179103851318,15.019937515258789,,,,,,,,,
,3839,,31,,,,,,27.11929702758789,9.801791191101074,1.7537585496902466,15.56374740600586,,,,,
0.0009403574681624404,3840,,,,,,,,,,,,,,,,
,3849,0.804923415184021,32,,,,,,,,,,,,,,
,3899,0.8252718448638916,32,,,,,,,,,,,,,,
,3949,0.8110145926475525,32,,,,,,,,,,,,,,
,3959,,32,0.8023873567581177,24.700929641723633,8.79486083984375,1.2627381086349487,14.643331527709961,,,,,,,,,
,3959,,32,,,,,,23.805137634277344,7.979045391082764,1.795732021331787,14.030359268188477,,,,,
0.0009349356960112697,3960,,,,,,,,,,,,,,,,
,3999,0.7789767980575562,33,,,,,,,,,,,,,,
,4049,0.7787992358207703,33,,,,,,,,,,,,,,
,4079,,33,0.7837247848510742,22.928667068481445,5.405405521392822,2.0381035804748535,15.485157012939453,,,,,,,,,
,4079,,33,,,,,,22.886615753173828,7.700582027435303,1.733458399772644,13.452574729919434,,,,,
0.0009292951724041319,4080,,,,,,,,,,,,,,,,
,4099,0.9136635661125183,34,,,,,,,,,,,,,,
,4149,0.7463389039039612,34,,,,,,,,,,,,,,
,4199,0.790344774723053,34,,,,,,,,,,,,,,
,4199,,34,0.7722868323326111,22.419139862060547,6.070004463195801,1.6836508512496948,14.665485382080078,,,,,,,,,
,4199,,34,,,,,,21.855026245117188,7.243135929107666,1.7545312643051147,12.857359886169434,,,,,
0.0009234387375145277,4200,,,,,,,,,,,,,,,,
,4249,0.6740353107452393,35,,,,,,,,,,,,,,
,4299,0.7124408483505249,35,,,,,,,,,,,,,,
,4319,,35,0.7682779431343079,21.998228073120117,4.27558708190918,2.237483501434326,15.485157012939453,,,,,,,,,
,4319,,35,,,,,,21.225811004638672,6.940293312072754,1.6775704622268677,12.60794734954834,,,,,
0.0009173693402337905,4320,,,,,,,,,,,,,,,,
,4349,0.843306303024292,36,,,,,,,,,,,,,,
,4399,0.6465834975242615,36,,,,,,,,,,,,,,
,4439,,36,0.7732698917388916,21.776695251464844,6.38015079498291,1.3070447444915771,14.089499473571777,,,,,,,,,
,4439,,36,,,,,,20.70657730102539,6.877448558807373,1.804935097694397,12.02419376373291,,,,,
0.0009110900366862309,4440,,,,,,,,,,,,,,,,
,4449,0.6332916021347046,37,,,,,,,,,,,,,,
,4499,0.8133481740951538,37,,,,,,,,,,,,,,
,4549,0.8050764799118042,37,,,,,,,,,,,,,,
,4559,,37,0.80506432056427,23.726184844970703,8.55117416381836,1.0855116844177246,14.089499473571777,,,,,,,,,
,4559,,37,,,,,,20.4989013671875,6.856789588928223,1.8347992897033691,11.80731201171875,,,,,
0.000904603988690286,4560,,,,,,,,,,,,,,,,
,4599,0.6010885238647461,38,,,,,,,,,,,,,,
,4649,0.810560941696167,38,,,,,,,,,,,,,,
,4679,,38,0.7419267892837524,20.846256256103516,6.446610450744629,1.129818320274353,13.269826889038086,,,,,,,,,
,4679,,38,,,,,,20.74927520751953,6.9351935386657715,1.8292431831359863,11.984838485717773,,,,,
0.0008979144621664494,4680,,,,,,,,,,,,,,,,
,4699,0.779781699180603,39,,,,,,,,,,,,,,
,4749,0.7163554430007935,39,,,,,,,,,,,,,,
,4799,0.6306860446929932,39,,,,,,,,,,,,,,
,4799,,39,0.7258017659187317,21.710235595703125,5.538325309753418,1.3513513803482056,14.820558547973633,,,,,,,,,
,4799,,39,,,,,,19.442068099975586,6.3343729972839355,1.7544101476669312,11.353283882141113,,,,,
0.0008910248254927808,4800,,,,,,,,,,,,,,,,
,4849,0.5657956004142761,40,,,,,,,,,,,,,,
,4899,0.5318830013275146,40,,,,,,,,,,,,,,
,4919,,40,0.7809562683105469,22.197607040405273,5.405405521392822,1.5064244270324707,15.285778045654297,,,,,,,,,
,4919,,40,,,,,,19.038965225219727,6.385790824890137,1.8091697692871094,10.844003677368164,,,,,
0.0008839385478088264,4920,,,,,,,,,,,,,,,,
,4949,0.5769377946853638,41,,,,,,,,,,,,,,
,4999,0.6477306485176086,41,,,,,,,,,,,,,,
,5039,,41,0.7948424816131592,22.928667068481445,6.933983325958252,1.2405848503112793,14.754097938537598,,,,,,,,,
,5039,,41,,,,,,17.907514572143555,6.051191806793213,1.6482006311416626,10.208121299743652,,,,,
0.0008766591972688036,5040,,,,,,,,,,,,,,,,
,5049,0.6752556562423706,42,,,,,,,,,,,,,,
,5099,0.6999979019165039,42,,,,,,,,,,,,,,
,5149,0.6747951507568359,42,,,,,,,,,,,,,,
,5159,,42,0.7790964245796204,21.156402587890625,4.630039691925049,2.1267168521881104,14.399645805358887,,,,,,,,,
,5159,,42,,,,,,17.983022689819336,6.039669036865234,1.7485783100128174,10.194774627685547,,,,,
0.0008691904392449266,5160,,,,,,,,,,,,,,,,
,5199,0.5761048793792725,43,,,,,,,,,,,,,,
,5249,0.5441840887069702,43,,,,,,,,,,,,,,
,5279,,43,0.7993994951248169,21.710235595703125,5.272485733032227,1.5507310628890991,14.887018203735352,,,,,,,,,
,5279,,43,,,,,,17.215356826782227,5.8296332359313965,1.7319825887680054,9.653740882873535,,,,,
0.000861536034481782,5280,,,,,,,,,,,,,,,,
,5299,0.5730278491973877,44,,,,,,,,,,,,,,
,5349,0.699336051940918,44,,,,,,,,,,,,,,
,5399,0.7599411010742188,44,,,,,,,,,,,,,,
,5399,,44,0.8620597124099731,23.283119201660156,6.070004463195801,1.4399645328521729,15.773150444030762,,,,,,,,,
,5399,,44,,,,,,16.981002807617188,5.688325881958008,1.7566078901290894,9.536067962646484,,,,,
0.0008536998372026804,5400,,,,,,,,,,,,,,,,
,5449,0.5555495023727417,45,,,,,,,,,,,,,,
,5499,0.6739388704299927,45,,,,,,,,,,,,,,
,5519,,45,0.7741789221763611,22.020381927490234,5.892777919769287,1.7722641229629517,14.355339050292969,,,,,,,,,
,5519,,45,,,,,,16.04342269897461,5.5119524002075195,1.7338649034500122,8.797605514526367,,,,,
0.0008456857931689388,5520,,,,,,,,,,,,,,,,
,5549,0.48627448081970215,46,,,,,,,,,,,,,,
,5599,0.5772696733474731,46,,,,,,,,,,,,,,
,5639,,46,0.7910594344139099,20.070890426635742,4.120513916015625,2.1267168521881104,13.823659896850586,,,,,,,,,
,5639,,46,,,,,,15.813338279724121,5.547209739685059,1.6221282482147217,8.644000053405762,,,,,
0.000837497937693071,5640,,,,,,,,,,,,,,,,
,5649,0.545777440071106,47,,,,,,,,,,,,,,
,5699,0.5350239276885986,47,,,,,,,,,,,,,,
,5749,0.4462786912918091,47,,,,,,,,,,,,,,
,5759,,47,0.8022982478141785,21.710235595703125,6.402304172515869,1.2184315919876099,14.089499473571777,,,,,,,,,
,5759,,47,,,,,,14.87808895111084,5.202177047729492,1.5792077779769897,8.096704483032227,,,,,
0.0008291403936068863,5760,,,,,,,,,,,,,,,,
,5799,0.46186500787734985,48,,,,,,,,,,,,,,
,5849,0.47696733474731445,48,,,,,,,,,,,,,,
,5879,,48,0.8173485398292542,22.33052635192871,5.649091720581055,1.4178112745285034,15.26362419128418,,,,,,,,,
,5879,,48,,,,,,14.692171096801758,5.114206790924072,1.68731689453125,7.8906474113464355,,,,,
0.0008206173691855193,5880,,,,,,,,,,,,,,,,
,5899,0.48055869340896606,49,,,,,,,,,,,,,,
,5949,0.47282445430755615,49,,,,,,,,,,,,,,
,5999,0.42478203773498535,49,,,,,,,,,,,,,,
,5999,,49,0.8489280343055725,21.953920364379883,5.981391429901123,1.3956578969955444,14.576871871948242,,,,,,,,,
,5999,,49,,,,,,14.457748413085938,5.262504577636719,1.6442739963531494,7.55096960067749,,,,,
0.0008119331560284373,6000,,,,,,,,,,,,,,,,
,6049,0.5220804810523987,50,,,,,,,,,,,,,,
,6099,0.49558761715888977,50,,,,,,,,,,,,,,
,6119,,50,0.8258340954780579,20.69118309020996,3.9211342334747314,2.1267168521881104,14.643331527709961,,,,,,,,,
,6119,,50,,,,,,14.0381498336792,5.031196117401123,1.6463732719421387,7.3605804443359375,,,,,
0.0008030921268984896,6120,,,,,,,,,,,,,,,,
,6149,0.42606210708618164,51,,,,,,,,,,,,,,
,6199,0.5300330519676208,51,,,,,,,,,,,,,,
,6239,,51,0.8319763541221619,22.396987915039062,6.1807708740234375,1.4621179103851318,14.754097938537598,,,,,,,,,
,6239,,51,,,,,,14.390207290649414,5.203858852386475,1.6234612464904785,7.562886714935303,,,,,
0.0007940987335200902,6240,,,,,,,,,,,,,,,,
,6249,0.535331130027771,52,,,,,,,,,,,,,,
,6299,0.4436783194541931,52,,,,,,,,,,,,,,
,6349,0.6806521415710449,52,,,,,,,,,,,,,,
,6359,,52,0.7920283079147339,20.292423248291016,5.228178977966309,1.5285778045654297,13.535666465759277,,,,,,,,,
,6359,,52,,,,,,13.759778022766113,5.034299850463867,1.7005540132522583,7.024924278259277,,,,,
0.0007849575043376416,6360,,,,,,,,,,,,,,,,
,6399,0.4495852589607239,53,,,,,,,,,,,,,,
,6449,0.29296109080314636,53,,,,,,,,,,,,,,
,6479,,53,0.8069736361503601,20.75764274597168,4.8737263679504395,1.8830305337905884,14.000885963439941,,,,,,,,,
,6479,,53,,,,,,12.467940330505371,4.692368984222412,1.5540112257003784,6.221560478210449,,,,,
0.000775673042235325,6480,,,,,,,,,,,,,,,,
,6499,0.46362560987472534,54,,,,,,,,,,,,,,
,6549,0.607331395149231,54,,,,,,,,,,,,,,
,6599,0.49045243859291077,54,,,,,,,,,,,,,,
,6599,,54,0.8079020380973816,20.779796600341797,5.228178977966309,1.860877275466919,13.690739631652832,,,,,,,,,
,6599,,54,,,,,,12.049701690673828,4.642650604248047,1.4489363431930542,5.958114147186279,,,,,
0.0007662500222194103,6600,,,,,,,,,,,,,,,,
,6649,0.4293648600578308,55,,,,,,,,,,,,,,
,6699,0.4165138006210327,55,,,,,,,,,,,,,,
,6719,,55,0.827602744102478,20.33673095703125,4.7629594802856445,1.7501107454299927,13.823659896850586,,,,,,,,,
,6719,,55,,,,,,11.828812599182129,4.609091758728027,1.4974744319915771,5.7222466468811035,,,,,
0.00075669318906425,6720,,,,,,,,,,,,,,,,
,6749,0.4497988224029541,56,,,,,,,,,,,,,,
,6799,0.5475490689277649,56,,,,,,,,,,,,,,
,6839,,56,0.8393377065658569,19.84935760498047,3.9211342334747314,2.348249912261963,13.579973220825195,,,,,,,,,
,6839,,56,,,,,,11.977400779724121,4.70855712890625,1.4510128498077393,5.817831039428711,,,,,
0.0007470073549231411,6840,,,,,,,,,,,,,,,,
,6849,0.41857481002807617,57,,,,,,,,,,,,,,
,6899,0.48741477727890015,57,,,,,,,,,,,,,,
,6949,0.45352697372436523,57,,,,,,,,,,,,,,
,6959,,57,0.8209283947944641,19.89366340637207,3.8546743392944336,1.9716438055038452,14.06734561920166,,,,,,,,,
,6959,,57,,,,,,11.426839828491211,4.564675331115723,1.4187132120132446,5.443451404571533,,,,,
0.0007371973969052627,6960,,,,,,,,,,,,,,,,
,6999,0.3770896792411804,58,,,,,,,,,,,,,,
,7049,0.45403826236724854,58,,,,,,,,,,,,,,
,7079,,58,0.9169036746025085,21.754541397094727,4.408506870269775,1.8830305337905884,15.463004112243652,,,,,,,,,
,7079,,58,,,,,,10.655308723449707,4.245582103729248,1.385327935218811,5.024398326873779,,,,,
0.0007272682546199035,7080,,,,,,,,,,,,,,,,
,7099,0.48823082447052,59,,,,,,,,,,,,,,
,7149,0.3252296447753906,59,,,,,,,,,,,,,,
,7199,0.5002349615097046,59,,,,,,,,,,,,,,
,7199,,59,0.8450223803520203,20.40319061279297,4.7851128578186035,1.5285778045654297,14.089499473571777,,,,,,,,,
,7199,,59,,,,,,10.33426284790039,4.265871524810791,1.3683762550354004,4.700015068054199,,,,,
0.0007172249276892202,7200,,,,,,,,,,,,,,,,
,7249,0.38772132992744446,60,,,,,,,,,,,,,,
,7299,0.3431500494480133,60,,,,,,,,,,,,,,
,7319,,60,0.8818696141242981,20.13735008239746,4.8737263679504395,1.5507310628890991,13.71289348602295,,,,,,,,,
,7319,,60,,,,,,10.330613136291504,4.198146820068359,1.3924888372421265,4.73997688293457,,,,,
0.0007070724732307769,7320,,,,,,,,,,,,,,,,
,7349,0.43472063541412354,61,,,,,,,,,,,,,,
,7399,0.33746111392974854,61,,,,,,,,,,,,,,
,7439,,61,0.8260949850082397,19.78289794921875,5.228178977966309,1.4621179103851318,13.09260082244873,,,,,,,,,
,7439,,61,,,,,,9.760597229003906,4.120376110076904,1.3532675504684448,4.286953449249268,,,,,
0.0006968160033111347,7440,,,,,,,,,,,,,,,,
,7449,0.3519262671470642,62,,,,,,,,,,,,,,
,7499,0.5307762026786804,62,,,,,,,,,,,,,,
,7549,0.35083574056625366,62,,,,,,,,,,,,,,
,7559,,62,0.878508448600769,21.289321899414062,5.693398475646973,1.5064244270324707,14.089499473571777,,,,,,,,,
,7559,,62,,,,,,9.859600067138672,4.07447624206543,1.3311147689819336,4.454009056091309,,,,,
0.0006864606823717715,7560,,,,,,,,,,,,,,,,
,7599,0.3758368492126465,63,,,,,,,,,,,,,,
,7649,0.47139063477516174,63,,,,,,,,,,,,,,
,7679,,63,0.932551383972168,21.710235595703125,5.892777919769287,1.5064244270324707,14.31103229522705,,,,,,,,,
,7679,,63,,,,,,9.28641414642334,4.0334930419921875,1.2815030813217163,3.9714179039001465,,,,,
0.0006760117246286306,7680,,,,,,,,,,,,,,,,
,7699,0.42120686173439026,64,,,,,,,,,,,,,,
,7749,0.3747159242630005,64,,,,,,,,,,,,,,
,7799,0.5255016088485718,64,,,,,,,,,,,,,,
,7799,,64,0.8304750919342041,19.58351707458496,4.142667293548584,1.4842711687088013,13.956579208374023,,,,,,,,,
,7799,,64,,,,,,9.051955223083496,3.929243326187134,1.2621372938156128,3.860574245452881,,,,,
0.0006654743914466059,7800,,,,,,,,,,,,,,,,
,7849,0.3992663621902466,65,,,,,,,,,,,,,,
,7899,0.42322883009910583,65,,,,,,,,,,,,,,
,7919,,65,0.935143232345581,20.51395606994629,3.8768277168273926,1.8165706396102905,14.820558547973633,,,,,,,,,
,7919,,65,,,,,,9.066515922546387,3.899606466293335,1.241159200668335,3.925750494003296,,,,,
0.0006548539886902862,7920,,,,,,,,,,,,,,,,
,7949,0.39273127913475037,66,,,,,,,,,,,,,,
,7999,0.30547797679901123,66,,,,,,,,,,,,,,
,8039,,66,0.8970365524291992,19.915817260742188,4.474967002868652,1.794417381286621,13.646432876586914,,,,,,,,,
,8039,,66,,,,,,8.522891998291016,3.7442164421081543,1.273392677307129,3.5052828788757324,,,,,
0.0006441558640522925,8040,,,,,,,,,,,,,,,,
,8049,0.438232958316803,67,,,,,,,,,,,,,,
,8099,0.22280587255954742,67,,,,,,,,,,,,,,
,8149,0.3943324089050293,67,,,,,,,,,,,,,,
,8159,,67,0.882513701915741,20.469650268554688,4.740806579589844,1.8387240171432495,13.890119552612305,,,,,,,,,
,8159,,67,,,,,,8.680583953857422,3.997854709625244,1.2322248220443726,3.450504779815674,,,,,
0.000633385404360554,8160,,,,,,,,,,,,,,,,
,8199,0.40071117877960205,68,,,,,,,,,,,,,,
,8249,0.3278087377548218,68,,,,,,,,,,,,,,
,8279,,68,0.9080787301063538,20.004430770874023,4.142667293548584,1.9273371696472168,13.934426307678223,,,,,,,,,
,8279,,68,,,,,,7.7875518798828125,3.6166341304779053,1.1926757097244263,2.9782423973083496,,,,,
0.0006225480328658779,8280,,,,,,,,,,,,,,,,
,8299,0.17825853824615479,69,,,,,,,,,,,,,,
,8349,0.2803965210914612,69,,,,,,,,,,,,,,
,8399,0.22946612536907196,69,,,,,,,,,,,,,,
,8399,,69,0.8806102871894836,19.78289794921875,5.183872222900391,1.5064244270324707,13.09260082244873,,,,,,,,,
,8399,,69,,,,,,7.684592247009277,3.498117685317993,1.222829818725586,2.9636447429656982,,,,,
0.0006116492065111788,8400,,,,,,,,,,,,,,,,
,8449,0.2604445815086365,70,,,,,,,,,,,,,,
,8499,0.3948979675769806,70,,,,,,,,,,,,,,
,8519,,70,0.8891420960426331,19.871511459350586,4.452813625335693,1.7501107454299927,13.668586730957031,,,,,,,,,
,8519,,70,,,,,,6.985172748565674,3.3844118118286133,1.065207839012146,2.535552978515625,,,,,
0.0006006944131837446,8520,,,,,,,,,,,,,,,,
,8549,0.33016660809516907,71,,,,,,,,,,,,,,
,8599,0.2916979193687439,71,,,,,,,,,,,,,,
,8639,,71,0.9507744312286377,21.4222412109375,5.892777919769287,1.8165706396102905,13.71289348602295,,,,,,,,,
,8639,,71,,,,,,6.75068998336792,3.352691650390625,1.1010887622833252,2.2969095706939697,,,,,
0.0005896891689519189,8640,,,,,,,,,,,,,,,,
,8649,0.34158945083618164,72,,,,,,,,,,,,,,
,8699,0.2927558422088623,72,,,,,,,,,,,,,,
,8749,0.2783932685852051,72,,,,,,,,,,,,,,
,8759,,72,0.9352995753288269,20.469650268554688,5.383252143859863,1.5064244270324707,13.579973220825195,,,,,,,,,
,8759,,72,,,,,,6.847678184509277,3.3743975162506104,1.0863444805145264,2.3869364261627197,,,,,
0.0005786390152875952,8760,,,,,,,,,,,,,,,,
,8799,0.3084256052970886,73,,,,,,,,,,,,,,
,8849,0.2877052426338196,73,,,,,,,,,,,,,,
,8879,,73,0.9048197269439697,19.605670928955078,4.89587926864624,1.5507310628890991,13.15906047821045,,,,,,,,,
,8879,,73,,,,,,6.81962251663208,3.3484911918640137,1.0389968156814575,2.4321343898773193,,,,,
0.0005675495162759188,8880,,,,,,,,,,,,,,,,
,8899,0.2816787660121918,74,,,,,,,,,,,,,,
,8949,0.2977186143398285,74,,,,,,,,,,,,,,
,8999,0.24438725411891937,74,,,,,,,,,,,,,,
,8999,,74,0.9440875053405762,20.64687728881836,5.272485733032227,1.5285778045654297,13.845812797546387,,,,,,,,,
,8999,,74,,,,,,6.686374187469482,3.3741235733032227,1.051835536956787,2.2604153156280518,,,,,
0.0005564262558136021,9000,,,,,,,,,,,,,,,,
,9049,0.297826886177063,75,,,,,,,,,,,,,,
,9099,0.18263062834739685,75,,,,,,,,,,,,,,
,9119,,75,0.9098240733146667,20.358882904052734,5.361098766326904,1.617190957069397,13.380593299865723,,,,,,,,,
,9119,,75,,,,,,6.181415557861328,3.1951844692230225,0.9714246392250061,2.0148065090179443,,,,,
0.0005452748347972648,9120,,,,,,,,,,,,,,,,
,9149,0.17321036756038666,76,,,,,,,,,,,,,,
,9199,0.20641210675239563,76,,,,,,,,,,,,,,
,9239,,76,0.9561626315116882,20.115196228027344,4.7851128578186035,1.6614975929260254,13.668586730957031,,,,,,,,,
,9239,,76,,,,,,6.113494873046875,3.1770918369293213,0.9888870716094971,1.9475160837173462,,,,,
0.0005341008683032136,9240,,,,,,,,,,,,,,,,
,9249,0.2255149483680725,77,,,,,,,,,,,,,,
,9299,0.2227369248867035,77,,,,,,,,,,,,,,
,9349,0.29464274644851685,77,,,,,,,,,,,,,,
,9359,,77,0.9709851741790771,20.115196228027344,4.430660247802734,2.0159504413604736,13.668586730957031,,,,,,,,,
,9359,,77,,,,,,6.279702186584473,3.293684482574463,1.0177732706069946,1.9682444334030151,,,,,
0.0005229099827600821,9360,,,,,,,,,,,,,,,,
,9399,0.2612432837486267,78,,,,,,,,,,,,,,
,9449,0.18460094928741455,78,,,,,,,,,,,,,,
,9479,,78,0.9582244753837585,20.115196228027344,4.940186023712158,1.5728843212127686,13.602127075195312,,,,,,,,,
,9479,,78,,,,,,6.336950302124023,3.2346575260162354,1.017552137374878,2.0847408771514893,,,,,
0.0005117078131157544,9480,,,,,,,,,,,,,,,,
,9499,0.20367363095283508,79,,,,,,,,,,,,,,
,9549,0.24432197213172913,79,,,,,,,,,,,,,,
,9599,0.23212207853794098,79,,,,,,,,,,,,,,
,9599,,79,0.9871916770935059,20.358882904052734,4.718653202056885,1.9273371696472168,13.71289348602295,,,,,,,,,
,9599,,79,,,,,,5.631713390350342,3.0699706077575684,0.9161836504936218,1.6455591917037964,,,,,
0.0005004999999999998,9600,,,,,,,,,,,,,,,,
,9649,0.2987895905971527,80,,,,,,,,,,,,,,
,9699,0.29387980699539185,80,,,,,,,,,,,,,,
,9719,,80,0.9649543762207031,20.624723434448242,5.361098766326904,1.7058041095733643,13.557820320129395,,,,,,,,,
,9719,,80,,,,,,5.565344333648682,3.0793161392211914,0.9098917841911316,1.5761363506317139,,,,,
0.0004892921868842453,9720,,,,,,,,,,,,,,,,
,9749,0.2452544867992401,81,,,,,,,,,,,,,,
,9799,0.32462000846862793,81,,,,,,,,,,,,,,
,9839,,81,0.9578431844711304,19.384138107299805,3.9211342334747314,1.9937970638275146,13.469206809997559,,,,,,,,,
,9839,,81,,,,,,5.681521415710449,3.1460118293762207,0.9226284623146057,1.612881064414978,,,,,
0.0004780900172399177,9840,,,,,,,,,,,,,,,,
,9849,0.2728957533836365,82,,,,,,,,,,,,,,
,9899,0.48288533091545105,82,,,,,,,,,,,,,,
,9949,0.1664908230304718,82,,,,,,,,,,,,,,
,9959,,82,0.9932732582092285,19.84935760498047,4.696499824523926,1.7279574871063232,13.42490005493164,,,,,,,,,
,9959,,82,,,,,,5.457292079925537,2.8989288806915283,0.8624004125595093,1.69596266746521,,,,,
0.0004668991316967861,9960,,,,,,,,,,,,,,,,
,9999,0.2653459310531616,83,,,,,,,,,,,,,,
,10049,0.20667630434036255,83,,,,,,,,,,,,,,
,10079,,83,0.9770270586013794,19.428443908691406,4.740806579589844,1.8165706396102905,12.871068000793457,,,,,,,,,
,10079,,83,,,,,,5.329554557800293,2.9660608768463135,0.8708332777023315,1.4926605224609375,,,,,
0.0004557251652027349,10080,,,,,,,,,,,,,,,,
,10099,0.15429462492465973,84,,,,,,,,,,,,,,
,10149,0.32136082649230957,84,,,,,,,,,,,,,,
,10199,0.3688257038593292,84,,,,,,,,,,,,,,
,10199,,84,0.9618262052536011,19.82720375061035,5.20602560043335,1.5728843212127686,13.048294067382812,,,,,,,,,
,10199,,84,,,,,,5.133695602416992,2.801570415496826,0.8661395907402039,1.4659857749938965,,,,,
0.0004445737441863976,10200,,,,,,,,,,,,,,,,
,10249,0.26809507608413696,85,,,,,,,,,,,,,,
,10299,0.20223084092140198,85,,,,,,,,,,,,,,
,10319,,85,0.975104570388794,21.134248733520508,6.956136226654053,1.4178112745285034,12.76030158996582,,,,,,,,,
,10319,,85,,,,,,6.225734710693359,3.246413469314575,0.9637359976768494,2.015584945678711,,,,,
0.000433450483724081,10320,,,,,,,,,,,,,,,,
,10349,0.25794732570648193,86,,,,,,,,,,,,,,
,10399,0.22040607035160065,86,,,,,,,,,,,,,,
,10439,,86,0.9415663480758667,19.53921127319336,4.386353492736816,1.7722641229629517,13.380593299865723,,,,,,,,,
,10439,,86,,,,,,4.985156059265137,2.8190114498138428,0.8521633744239807,1.3139809370040894,,,,,
0.0004223609847124046,10440,,,,,,,,,,,,,,,,
,10449,0.2763760983943939,87,,,,,,,,,,,,,,
,10499,0.1222640722990036,87,,,,,,,,,,,,,,
,10549,0.18014338612556458,87,,,,,,,,,,,,,,
,10559,,87,0.9793425798416138,19.494905471801758,4.364200115203857,1.9051839113235474,13.225520133972168,,,,,,,,,
,10559,,87,,,,,,4.801290035247803,2.7183876037597656,0.8629364371299744,1.2199660539627075,,,,,
0.0004113108310480809,10560,,,,,,,,,,,,,,,,
,10599,0.163678377866745,88,,,,,,,,,,,,,,
,10649,0.18151262402534485,88,,,,,,,,,,,,,,
,10679,,88,0.9991927742958069,19.58351707458496,4.718653202056885,1.6393442153930664,13.225520133972168,,,,,,,,,
,10679,,88,,,,,,4.607494354248047,2.640141248703003,0.7596437335014343,1.2077094316482544,,,,,
0.00040030558681625514,10680,,,,,,,,,,,,,,,,
,10699,0.19569021463394165,89,,,,,,,,,,,,,,
,10749,0.22731247544288635,89,,,,,,,,,,,,,,
,10799,0.1868061125278473,89,,,,,,,,,,,,,,
,10799,,89,0.9815227389335632,19.58351707458496,5.073105812072754,1.5728843212127686,12.937527656555176,,,,,,,,,
,10799,,89,,,,,,4.364276885986328,2.5550005435943604,0.7594832181930542,1.0497928857803345,,,,,
0.0003893507934888208,10800,,,,,,,,,,,,,,,,
,10849,0.1930137276649475,90,,,,,,,,,,,,,,
,10899,0.25896626710891724,90,,,,,,,,,,,,,,
,10919,,90,0.9939953088760376,19.605670928955078,4.8515729904174805,1.2405848503112793,13.513513565063477,,,,,,,,,
,10919,,90,,,,,,4.673411846160889,2.7063114643096924,0.781884491443634,1.1852158308029175,,,,,
0.0003784519671341218,10920,,,,,,,,,,,,,,,,
,10949,0.20598290860652924,91,,,,,,,,,,,,,,
,10999,0.15228772163391113,91,,,,,,,,,,,,,,
,11039,,91,1.0185632705688477,19.53921127319336,4.474967002868652,1.6614975929260254,13.40274715423584,,,,,,,,,
,11039,,91,,,,,,4.500500679016113,2.5966010093688965,0.8065511584281921,1.0973485708236694,,,,,
0.00036761459563944575,11040,,,,,,,,,,,,,,,,
,11049,0.23579534888267517,92,,,,,,,,,,,,,,
,11099,0.2657712399959564,92,,,,,,,,,,,,,,
,11149,0.2988668978214264,92,,,,,,,,,,,,,,
,11159,,92,0.9624119997024536,19.89366340637207,5.316792011260986,1.4399645328521729,13.136907577514648,,,,,,,,,
,11159,,92,,,,,,4.2412896156311035,2.604517936706543,0.7681400775909424,0.8686315417289734,,,,,
0.0003568441359477071,11160,,,,,,,,,,,,,,,,
,11199,0.46702757477760315,93,,,,,,,,,,,,,,
,11249,0.2888187766075134,93,,,,,,,,,,,,,,
,11279,,93,0.9722172617912292,19.694284439086914,5.427558898925781,1.5507310628890991,12.715994834899902,,,,,,,,,
,11279,,93,,,,,,4.170678615570068,2.6094253063201904,0.7744367122650146,0.7868167161941528,,,,,
0.0003461460113097136,11280,,,,,,,,,,,,,,,,
,11299,0.2762671113014221,94,,,,,,,,,,,,,,
,11349,0.13926604390144348,94,,,,,,,,,,,,,,
,11399,0.23322926461696625,94,,,,,,,,,,,,,,
,11399,,94,0.9679190516471863,20.02658462524414,5.338945388793945,1.5507310628890991,13.136907577514648,,,,,,,,,
,11399,,94,,,,,,4.633944511413574,2.8098716735839844,0.7913966774940491,1.032676100730896,,,,,
0.0003355256085533939,11400,,,,,,,,,,,,,,,,
,11449,0.17213015258312225,95,,,,,,,,,,,,,,
,11499,0.157010018825531,95,,,,,,,,,,,,,,
,11519,,95,0.9993411898612976,19.251218795776367,4.342046737670898,1.7279574871063232,13.181214332580566,,,,,,,,,
,11519,,95,,,,,,4.068685054779053,2.475691318511963,0.7654644250869751,0.8275291323661804,,,,,
0.0003249882753713692,11520,,,,,,,,,,,,,,,,
,11549,0.16542473435401917,96,,,,,,,,,,,,,,
,11599,0.24307787418365479,96,,,,,,,,,,,,,,
,11639,,96,0.9861893057823181,19.760744094848633,5.117412567138672,1.5728843212127686,13.07044792175293,,,,,,,,,
,11639,,96,,,,,,4.038437843322754,2.5017478466033936,0.6922644376754761,0.8444255590438843,,,,,
0.00031453931762822837,11640,,,,,,,,,,,,,,,,
,11649,0.1277036815881729,97,,,,,,,,,,,,,,
,11699,0.10808955878019333,97,,,,,,,,,,,,,,
,11749,0.24502506852149963,97,,,,,,,,,,,,,,
,11759,,97,0.9992623329162598,18.586620330810547,4.8515729904174805,1.617190957069397,12.1178560256958,,,,,,,,,
,11759,,97,,,,,,3.699415683746338,2.3762266635894775,0.6891608834266663,0.6340280175209045,,,,,
0.0003041839966888652,11760,,,,,,,,,,,,,,,,
,11799,0.24776947498321533,98,,,,,,,,,,,,,,
,11849,0.13936984539031982,98,,,,,,,,,,,,,,
,11879,,98,0.9915482401847839,20.2702693939209,6.402304172515869,1.2627381086349487,12.605228424072266,,,,,,,,,
,11879,,98,,,,,,3.78531551361084,2.453852653503418,0.6822370886802673,0.6492255926132202,,,,,
0.0002939275267692228,11880,,,,,,,,,,,,,,,,
,11899,0.32403668761253357,99,,,,,,,,,,,,,,
,11949,0.10974780470132828,99,,,,,,,,,,,,,,
,11999,0.17522141337394714,99,,,,,,,,,,,,,,
,11999,,99,1.0224261283874512,19.53921127319336,5.16171932220459,1.617190957069397,12.76030158996582,,,,,,,,,
,11999,,99,,,,,,3.551280975341797,2.363851547241211,0.5999064445495605,0.5875230431556702,,,,,
0.00028377507231077965,12000,,,,,,,,,,,,,,,,
,12049,0.13524609804153442,100,,,,,,,,,,,,,,
,12099,0.19081512093544006,100,,,,,,,,,,,,,,
,12119,,100,0.994696319103241,18.963226318359375,4.8737263679504395,1.794417381286621,12.295082092285156,,,,,,,,,
,12119,,100,,,,,,3.3703837394714355,2.3112778663635254,0.5860937237739563,0.47301211953163147,,,,,
0.0002737317453800963,12120,,,,,,,,,,,,,,,,
,12149,0.16692230105400085,101,,,,,,,,,,,,,,
,12199,0.19596099853515625,101,,,,,,,,,,,,,,
,12239,,101,0.9653989672660828,19.18475914001465,6.291537284851074,1.2848914861679077,11.608329772949219,,,,,,,,,
,12239,,101,,,,,,3.482182264328003,2.359609365463257,0.6012797951698303,0.521293044090271,,,,,
0.00026380260309473707,12240,,,,,,,,,,,,,,,,
,12249,0.23898297548294067,102,,,,,,,,,,,,,,
,12299,0.1530345231294632,102,,,,,,,,,,,,,,
,12349,0.14602625370025635,102,,,,,,,,,,,,,,
,12359,,102,0.9821246862411499,18.453699111938477,4.364200115203857,1.9273371696472168,12.162161827087402,,,,,,,,,
,12359,,102,,,,,,3.3610339164733887,2.267157793045044,0.5886943340301514,0.5051819086074829,,,,,
0.0002539926450768586,12360,,,,,,,,,,,,,,,,
,12399,0.1845594048500061,103,,,,,,,,,,,,,,
,12449,0.1577279269695282,103,,,,,,,,,,,,,,
,12479,,103,1.0080183744430542,19.605670928955078,5.693398475646973,1.5950376987457275,12.317234992980957,,,,,,,,,
,12479,,103,,,,,,3.431521415710449,2.3451950550079346,0.6142506003379822,0.47207576036453247,,,,,
0.0002443068109357498,12480,,,,,,,,,,,,,,,,
,12499,0.1432267725467682,104,,,,,,,,,,,,,,
,12549,0.18187542259693146,104,,,,,,,,,,,,,,
,12599,0.1096799448132515,104,,,,,,,,,,,,,,
,12599,,104,0.9763045907020569,18.852458953857422,4.674346446990967,1.7722641229629517,12.405848503112793,,,,,,,,,
,12599,,104,,,,,,3.2083940505981445,2.157748222351074,0.6003690361976624,0.45027676224708557,,,,,
0.00023474997778058935,12600,,,,,,,,,,,,,,,,
,12649,0.2014547437429428,105,,,,,,,,,,,,,,
,12699,0.16456905007362366,105,,,,,,,,,,,,,,
,12719,,105,1.0243780612945557,19.649978637695312,6.269383907318115,1.3956578969955444,11.984935760498047,,,,,,,,,
,12719,,105,,,,,,3.2214138507843018,2.236557960510254,0.5818352103233337,0.40302059054374695,,,,,
0.00022532695776467476,12720,,,,,,,,,,,,,,,,
,12749,0.15413132309913635,106,,,,,,,,,,,,,,
,12799,0.3604169487953186,106,,,,,,,,,,,,,,
,12839,,106,0.9840322732925415,18.520158767700195,4.054054260253906,1.9273371696472168,12.53876781463623,,,,,,,,,
,12839,,106,,,,,,3.16129469871521,2.2129063606262207,0.5855267643928528,0.36286166310310364,,,,,
0.00021604249566235817,12840,,,,,,,,,,,,,,,,
,12849,0.17230242490768433,107,,,,,,,,,,,,,,
,12899,0.11873442679643631,107,,,,,,,,,,,,,,
,12949,0.21960601210594177,107,,,,,,,,,,,,,,
,12959,,107,0.9858741164207458,20.048736572265625,6.756756782531738,1.3070447444915771,11.984935760498047,,,,,,,,,
,12959,,107,,,,,,3.3209469318389893,2.290118455886841,0.5973024964332581,0.43352600932121277,,,,,
0.00020690126647990965,12960,,,,,,,,,,,,,,,,
,12999,0.14000500738620758,108,,,,,,,,,,,,,,
,13049,0.13155490159988403,108,,,,,,,,,,,,,,
,13079,,108,0.968005359172821,18.56446647644043,4.696499824523926,1.7279574871063232,12.140008926391602,,,,,,,,,
,13079,,108,,,,,,3.0639595985412598,2.192470073699951,0.5278422832489014,0.3436473309993744,,,,,
0.00019790787310151043,13080,,,,,,,,,,,,,,,,
,13099,0.1357969045639038,109,,,,,,,,,,,,,,
,13149,0.10554511100053787,109,,,,,,,,,,,,,,
,13199,0.16548897325992584,109,,,,,,,,,,,,,,
,13199,,109,0.9888263940811157,19.273372650146484,5.759858131408691,1.4621179103851318,12.051395416259766,,,,,,,,,
,13199,,109,,,,,,3.0036942958831787,2.1076862812042236,0.5500110387802124,0.3459969162940979,,,,,
0.00018906684397156255,13200,,,,,,,,,,,,,,,,
,13249,0.2599601447582245,110,,,,,,,,,,,,,,
,13299,0.1334512084722519,110,,,,,,,,,,,,,,
,13319,,110,1.0070070028305054,19.18475914001465,5.272485733032227,1.7722641229629517,12.140008926391602,,,,,,,,,
,13319,,110,,,,,,2.9813578128814697,2.1503748893737793,0.5186764597892761,0.3123065233230591,,,,,
0.00018038263081448039,13320,,,,,,,,,,,,,,,,
,13349,0.08724328875541687,111,,,,,,,,,,,,,,
,13399,0.20439353585243225,111,,,,,,,,,,,,,,
,13439,,111,1.0203359127044678,19.738590240478516,5.937084674835205,1.6393442153930664,12.162161827087402,,,,,,,,,
,13439,,111,,,,,,2.923252582550049,2.1184983253479004,0.5227463245391846,0.2820079028606415,,,,,
0.0001718596063931135,13440,,,,,,,,,,,,,,,,
,13449,0.09283360093832016,112,,,,,,,,,,,,,,
,13499,0.16912448406219482,112,,,,,,,,,,,,,,
,13549,0.14956262707710266,112,,,,,,,,,,,,,,
,13559,,112,0.9729353189468384,18.896764755249023,5.139565944671631,1.3956578969955444,12.361541748046875,,,,,,,,,
,13559,,112,,,,,,3.071930408477783,2.141000747680664,0.559657871723175,0.3712718188762665,,,,,
0.00016350206230692882,13560,,,,,,,,,,,,,,,,
,13599,0.14669832587242126,113,,,,,,,,,,,,,,
,13649,0.11901082843542099,113,,,,,,,,,,,,,,
,13679,,113,1.0527193546295166,20.890562057495117,7.864421844482422,1.1076650619506836,11.918476104736328,,,,,,,,,
,13679,,113,,,,,,2.7925641536712646,1.9761700630187988,0.5309319496154785,0.2854621112346649,,,,,
0.00015531420683106105,13680,,,,,,,,,,,,,,,,
,13699,0.19764941930770874,114,,,,,,,,,,,,,,
,13749,0.17855429649353027,114,,,,,,,,,,,,,,
,13799,0.18776942789554596,114,,,,,,,,,,,,,,
,13799,,114,0.9586607813835144,18.63092613220215,5.028799057006836,1.617190957069397,11.984935760498047,,,,,,,,,
,13799,,114,,,,,,3.061969041824341,2.224884033203125,0.5314388871192932,0.3056461811065674,,,,,
0.0001473001627973195,13800,,,,,,,,,,,,,,,,
,13849,0.1443648785352707,115,,,,,,,,,,,,,,
,13899,0.11877427250146866,115,,,,,,,,,,,,,,
,13919,,115,0.98088538646698,18.409393310546875,4.474967002868652,1.8830305337905884,12.051395416259766,,,,,,,,,
,13919,,115,,,,,,2.7447519302368164,1.9833935499191284,0.5144685506820679,0.24688974022865295,,,,,
0.0001394639655182179,13920,,,,,,,,,,,,,,,,
,13949,0.1338355988264084,116,,,,,,,,,,,,,,
,13999,0.12082727253437042,116,,,,,,,,,,,,,,
,14039,,116,0.9906212687492371,18.475852966308594,5.250332355499268,1.5950376987457275,11.63048267364502,,,,,,,,,
,14039,,116,,,,,,2.7941195964813232,2.048745632171631,0.5455973148345947,0.1997767984867096,,,,,
0.00013180956075507333,14040,,,,,,,,,,,,,,,,
,14049,0.21301990747451782,117,,,,,,,,,,,,,,
,14099,0.31193238496780396,117,,,,,,,,,,,,,,
,14149,0.10445744544267654,117,,,,,,,,,,,,,,
,14159,,117,1.0165916681289673,19.073991775512695,5.4940185546875,1.5064244270324707,12.073549270629883,,,,,,,,,
,14159,,117,,,,,,2.6542344093322754,1.9514811038970947,0.5102181434631348,0.1925351321697235,,,,,
0.0001243408027311963,14160,,,,,,,,,,,,,,,,
,14199,0.1829003393650055,118,,,,,,,,,,,,,,
,14249,0.048731669783592224,118,,,,,,,,,,,,,,
,14279,,118,0.962817370891571,18.387239456176758,5.050952434539795,1.6393442153930664,11.696943283081055,,,,,,,,,
,14279,,118,,,,,,2.7079169750213623,1.9982085227966309,0.5071315169334412,0.20257699489593506,,,,,
0.00011706145219117339,14280,,,,,,,,,,,,,,,,
,14299,0.16786128282546997,119,,,,,,,,,,,,,,
,14349,0.18156348168849945,119,,,,,,,,,,,,,,
,14399,0.0925588458776474,119,,,,,,,,,,,,,,
,14399,,119,0.9778726100921631,18.67523193359375,5.338945388793945,1.4399645328521729,11.896322250366211,,,,,,,,,
,14399,,119,,,,,,2.585468292236328,1.9290827512741089,0.45739713311195374,0.19898848235607147,,,,,
0.0001099751745072191,14400,,,,,,,,,,,,,,,,
,14449,0.13924366235733032,120,,,,,,,,,,,,,,
,14499,0.12718957662582397,120,,,,,,,,,,,,,,
,14519,,120,0.9839836955070496,19.051837921142578,5.139565944671631,1.7279574871063232,12.18431568145752,,,,,,,,,
,14519,,120,,,,,,2.581390857696533,1.9043949842453003,0.52013099193573,0.15686489641666412,,,,,
0.00010308553783355037,14520,,,,,,,,,,,,,,,,
,14549,0.1414598971605301,121,,,,,,,,,,,,,,
,14599,0.20378819108009338,121,,,,,,,,,,,,,,
,14639,,121,0.9848576188087463,18.763845443725586,5.006646156311035,1.5728843212127686,12.18431568145752,,,,,,,,,
,14639,,121,,,,,,2.556743621826172,1.9206622838974,0.4981027841567993,0.13797861337661743,,,,,
9.639601130971375e-05,14640,,,,,,,,,,,,,,,,
,14649,0.16235944628715515,122,,,,,,,,,,,,,,
,14699,0.14417997002601624,122,,,,,,,,,,,,,,
,14749,0.2657502293586731,122,,,,,,,,,,,,,,
,14759,,122,0.9710898995399475,18.36508560180664,4.940186023712158,1.5507310628890991,11.87416934967041,,,,,,,,,
,14759,,122,,,,,,2.399317979812622,1.7764577865600586,0.46061405539512634,0.16224615275859833,,,,,
8.990996331376899e-05,14760,,,,,,,,,,,,,,,,
,14799,0.14010195434093475,123,,,,,,,,,,,,,,
,14849,0.17666393518447876,123,,,,,,,,,,,,,,
,14879,,123,0.9631350040435791,18.719539642333984,5.937084674835205,1.4178112745285034,11.364643096923828,,,,,,,,,
,14879,,123,,,,,,2.493443727493286,1.9030357599258423,0.4572228789329529,0.13318504393100739,,,,,
8.363065976620927e-05,14880,,,,,,,,,,,,,,,,
,14899,0.12168756127357483,124,,,,,,,,,,,,,,
,14949,0.23837947845458984,124,,,,,,,,,,,,,,
,14999,0.1581873744726181,124,,,,,,,,,,,,,,
,14999,,124,1.0025779008865356,18.830305099487305,5.427558898925781,1.5507310628890991,11.852015495300293,,,,,,,,,
,14999,,124,,,,,,2.37778902053833,1.806626558303833,0.4383021295070648,0.13286033272743225,,,,,
7.756126248547202e-05,15000,,,,,,,,,,,,,,,,
,15049,0.18250057101249695,125,,,,,,,,,,,,,,
,15099,0.14056043326854706,125,,,,,,,,,,,,,,
,15119,,125,0.98820960521698,18.74169158935547,5.050952434539795,1.6614975929260254,12.029242515563965,,,,,,,,,
,15119,,125,,,,,,2.40635085105896,1.8523112535476685,0.4603213965892792,0.09371812641620636,,,,,
7.170482759586783e-05,15120,,,,,,,,,,,,,,,,
,15149,0.12259306013584137,126,,,,,,,,,,,,,,
,15199,0.09956848621368408,126,,,,,,,,,,,,,,
,15239,,126,1.000218391418457,18.67523193359375,5.383252143859863,1.6393442153930664,11.652636528015137,,,,,,,,,
,15239,,126,,,,,,2.3268280029296875,1.7509620189666748,0.4755360186100006,0.10032985359430313,,,,,
6.606430398873013e-05,15240,,,,,,,,,,,,,,,,
,15249,0.09151068329811096,127,,,,,,,,,,,,,,
,15299,0.11506830155849457,127,,,,,,,,,,,,,,
,15349,0.1681380271911621,127,,,,,,,,,,,,,,
,15359,,127,0.9972602128982544,18.963226318359375,6.003544330596924,1.5285778045654297,11.431103706359863,,,,,,,,,
,15359,,127,,,,,,2.5202457904815674,1.9414005279541016,0.4674760401248932,0.111369289457798,,,,,
6.064253183755932e-05,15360,,,,,,,,,,,,,,,,
,15399,0.15155333280563354,128,,,,,,,,,,,,,,
,15449,0.10754776000976562,128,,,,,,,,,,,,,,
,15479,,128,1.0010833740234375,18.830305099487305,5.383252143859863,1.7501107454299927,11.696943283081055,,,,,,,,,
,15479,,128,,,,,,2.4517087936401367,1.873865008354187,0.4677783250808716,0.11006549000740051,,,,,
5.544224116791025e-05,15480,,,,,,,,,,,,,,,,
,15499,0.17847880721092224,129,,,,,,,,,,,,,,
,15549,0.13681064546108246,129,,,,,,,,,,,,,,
,15599,0.14361679553985596,129,,,,,,,,,,,,,,
,15599,,129,0.9834548830986023,18.56446647644043,5.759858131408691,1.5064244270324707,11.29818344116211,,,,,,,,,
,15599,,129,,,,,,2.3980252742767334,1.8354064226150513,0.4550594389438629,0.10755950212478638,,,,,
5.046605048274165e-05,15600,,,,,,,,,,,,,,,,
,15649,0.11498156189918518,130,,,,,,,,,,,,,,
,15699,0.1056353896856308,130,,,,,,,,,,,,,,
,15719,,130,0.986116349697113,18.653079986572266,5.892777919769287,1.5950376987457275,11.165263175964355,,,,,,,,,
,15719,,130,,,,,,2.336808443069458,1.7632657289505005,0.47863999009132385,0.09490276128053665,,,,,
4.571646544392144e-05,15720,,,,,,,,,,,,,,,,
,15749,0.14533942937850952,131,,,,,,,,,,,,,,
,15799,0.11629690229892731,131,,,,,,,,,,,,,,
,15839,,131,0.9761691093444824,18.387239456176758,5.582631587982178,1.7279574871063232,11.076650619506836,,,,,,,,,
,15839,,131,,,,,,2.317962884902954,1.7990365028381348,0.44184446334838867,0.07708189636468887,,,,,
4.119587761055041e-05,15840,,,,,,,,,,,,,,,,
,15849,0.19841022789478302,132,,,,,,,,,,,,,,
,15899,0.13199836015701294,132,,,,,,,,,,,,,,
,15949,0.04990708827972412,132,,,,,,,,,,,,,,
,15959,,132,0.9794741868972778,18.1878604888916,5.626938343048096,1.3956578969955444,11.165263175964355,,,,,,,,,
,15959,,132,,,,,,2.3567957878112793,1.8309218883514404,0.4377692937850952,0.08810451626777649,,,,,
3.690656323474007e-05,15960,,,,,,,,,,,,,,,,
,15999,0.10218247771263123,133,,,,,,,,,,,,,,
,16049,0.1301915943622589,133,,,,,,,,,,,,,,
,16079,,133,0.9996265172958374,18.387239456176758,6.38015079498291,1.2627381086349487,10.74435043334961,,,,,,,,,
,16079,,133,,,,,,2.2398018836975098,1.7156221866607666,0.43750429153442383,0.08667538315057755,,,,,
3.2850682115451246e-05,16080,,,,,,,,,,,,,,,,
,16099,0.13656070828437805,134,,,,,,,,,,,,,,
,16149,0.09297166764736176,134,,,,,,,,,,,,,,
,16199,0.1656319946050644,134,,,,,,,,,,,,,,
,16199,,134,0.9976377487182617,18.49800682067871,6.2029242515563965,1.3513513803482056,10.943730354309082,,,,,,,,,
,16199,,134,,,,,,2.2922675609588623,1.7830281257629395,0.42919638752937317,0.08004305511713028,,,,,
2.903027651097038e-05,16200,,,,,,,,,,,,,,,,
,16249,0.09628570079803467,135,,,,,,,,,,,,,,
,16299,0.10110890865325928,135,,,,,,,,,,,,,,
,16319,,135,0.9977132081985474,18.67523193359375,6.38015079498291,1.4621179103851318,10.832963943481445,,,,,,,,,
,16319,,135,,,,,,2.2428982257843018,1.71790611743927,0.461773157119751,0.06321894377470016,,,,,
2.5447270110570797e-05,16320,,,,,,,,,,,,,,,,
,16349,0.1415075957775116,136,,,,,,,,,,,,,,
,16399,0.09258116036653519,136,,,,,,,,,,,,,,
,16439,,136,0.9987552762031555,19.051837921142578,6.823216438293457,1.4621179103851318,10.766504287719727,,,,,,,,,
,16439,,136,,,,,,2.3013646602630615,1.7745130062103271,0.4553207755088806,0.07153075933456421,,,,,
2.2103467065877228e-05,16440,,,,,,,,,,,,,,,,
,16449,0.08809822797775269,137,,,,,,,,,,,,,,
,16499,0.15129691362380981,137,,,,,,,,,,,,,,
,16549,0.1970362663269043,137,,,,,,,,,,,,,,
,16559,,137,0.9977816343307495,18.60877227783203,6.1586174964904785,1.6393442153930664,10.810811042785645,,,,,,,,,
,16559,,137,,,,,,2.311445474624634,1.81111478805542,0.421766459941864,0.07856433838605881,,,,,
1.9000551082421295e-05,16560,,,,,,,,,,,,,,,,
,16599,0.09527507424354553,138,,,,,,,,,,,,,,
,16649,0.13264858722686768,138,,,,,,,,,,,,,,
,16679,,138,0.9930038452148438,18.586620330810547,6.269383907318115,1.5728843212127686,10.74435043334961,,,,,,,,,
,16679,,138,,,,,,2.1189825534820557,1.6574357748031616,0.3981703519821167,0.06337659806013107,,,,,
1.6140084571844897e-05,16680,,,,,,,,,,,,,,,,
,16699,0.11155079305171967,139,,,,,,,,,,,,,,
,16749,0.15519537031650543,139,,,,,,,,,,,,,,
,16799,0.12214450538158417,139,,,,,,,,,,,,,,
,16799,,139,0.9948948621749878,18.697385787963867,6.446610450744629,1.5285778045654297,10.722197532653809,,,,,,,,,
,16799,,139,,,,,,2.2511215209960938,1.7202353477478027,0.48012951016426086,0.0507565476000309,,,,,
1.3523507865179094e-05,16800,,,,,,,,,,,,,,,,
,16849,0.15737205743789673,140,,,,,,,,,,,,,,
,16899,0.0828048586845398,140,,,,,,,,,,,,,,
,16919,,140,0.9912731051445007,18.697385787963867,6.71245002746582,1.4399645328521729,10.544971466064453,,,,,,,,,
,16919,,140,,,,,,2.2107975482940674,1.7201218605041504,0.4258955419063568,0.06478022783994675,,,,,
1.1152138487593872e-05,16920,,,,,,,,,,,,,,,,
,16949,0.09981600195169449,141,,,,,,,,,,,,,,
,16999,0.11170347034931183,141,,,,,,,,,,,,,,
,17039,,141,0.9943177103996277,18.896764755249023,6.734603404998779,1.4842711687088013,10.67789077758789,,,,,,,,,
,17039,,141,,,,,,2.3518731594085693,1.8223578929901123,0.4579963684082031,0.07151895016431808,,,,,
9.027170494984476e-06,17040,,,,,,,,,,,,,,,,
,17049,0.09429699182510376,142,,,,,,,,,,,,,,
,17099,0.12589728832244873,142,,,,,,,,,,,,,,
,17149,0.11203097552061081,142,,,,,,,,,,,,,,
,17159,,142,0.9876965284347534,18.91891860961914,6.623836994171143,1.4178112745285034,10.877270698547363,,,,,,,,,
,17159,,142,,,,,,2.2636208534240723,1.7569223642349243,0.44611507654190063,0.06058352813124657,,,,,
7.149673872728734e-06,17160,,,,,,,,,,,,,,,,
,17199,0.0961640402674675,143,,,,,,,,,,,,,,
,17249,0.13706761598587036,143,,,,,,,,,,,,,,
,17279,,143,0.9931139945983887,18.98537826538086,6.71245002746582,1.373504638671875,10.899423599243164,,,,,,,,,
,17279,,143,,,,,,2.224517822265625,1.7314049005508423,0.41460055112838745,0.07851240038871765,,,,,
5.520593996916613e-06,17280,,,,,,,,,,,,,,,,
,17299,0.11695758998394012,144,,,,,,,,,,,,,,
,17349,0.11455662548542023,144,,,,,,,,,,,,,,
,17399,0.09104691445827484,144,,,,,,,,,,,,,,
,17399,,144,0.9928997159004211,18.91891860961914,6.601683616638184,1.3956578969955444,10.921577453613281,,,,,,,,,
,17399,,144,,,,,,2.2207581996917725,1.7431167364120483,0.4213675856590271,0.056273847818374634,,,,,
4.140751158325317e-06,17400,,,,,,,,,,,,,,,,
,17449,0.11622889339923859,145,,,,,,,,,,,,,,
,17499,0.17938163876533508,145,,,,,,,,,,,,,,
,17519,,145,0.9965832829475403,18.87461280822754,6.513070583343506,1.4399645328521729,10.921577453613281,,,,,,,,,
,17519,,145,,,,,,2.28727126121521,1.8014670610427856,0.4238745868206024,0.06192972883582115,,,,,
3.010840149378084e-06,17520,,,,,,,,,,,,,,,,
,17549,0.14471834897994995,146,,,,,,,,,,,,,,
,17599,0.08921989053487778,146,,,,,,,,,,,,,,
,17639,,146,0.9908708333969116,18.719539642333984,6.42445707321167,1.4399645328521729,10.855117797851562,,,,,,,,,
,17639,,146,,,,,,2.3000235557556152,1.7856897115707397,0.4274623990058899,0.08687138557434082,,,,,
2.1314299142951862e-06,17640,,,,,,,,,,,,,,,,
,17649,0.10480521619319916,147,,,,,,,,,,,,,,
,17699,0.09431502223014832,147,,,,,,,,,,,,,,
,17749,0.10628459602594376,147,,,,,,,,,,,,,,
,17759,,147,0.9926902651786804,18.830305099487305,6.490917205810547,1.4399645328521729,10.899423599243164,,,,,,,,,
,17759,,147,,,,,,2.214118719100952,1.7214806079864502,0.4279620349407196,0.06467593461275101,,,,,
1.5029632626133622e-06,17760,,,,,,,,,,,,,,,,
,17799,0.169936865568161,148,,,,,,,,,,,,,,
,17849,0.1365988850593567,148,,,,,,,,,,,,,,
,17879,,148,0.9915273189544678,18.785999298095703,6.42445707321167,1.3956578969955444,10.9658842086792,,,,,,,,,
,17879,,148,,,,,,2.1267521381378174,1.6741639375686646,0.38930845260620117,0.06327982246875763,,,,,
1.1257566462179877e-06,17880,,,,,,,,,,,,,,,,
,17899,0.08949893712997437,149,,,,,,,,,,,,,,
,17949,0.05501823499798775,149,,,,,,,,,,,,,,
,17999,0.19235743582248688,149,,,,,,,,,,,,,,
,17999,,149,0.9913069605827332,18.763845443725586,6.490917205810547,1.373504638671875,10.899423599243164,,,,,,,,,
,17999,,149,,,,,,2.3378052711486816,1.847953200340271,0.4334365427494049,0.05641555041074753,,,,,
,18000,,150,0.9794741868972778,18.1878604888916,5.626938343048096,1.3956578969955444,11.165263175964355,,,,,,,,,
,18000,,150,,,,,,,,,,1.106826901435852,21.050355911254883,5.424681186676025,1.5776960849761963,14.047979354858398
