lr-Adam,step,train/loss,epoch,val/loss,val/CER,val/IER,val/DER,val/SER,train/CER,train/IER,train/DER,train/SER,test/loss,test/CER,test/IER,test/DER,test/SER
1e-08,0,,,,,,,,,,,,,,,,
,49,109.98300170898438,0,,,,,,,,,,,,,,
,99,168.57595825195312,0,,,,,,,,,,,,,,
,119,,0,101.53600311279297,1358.0859375,0.0,1294.218017578125,63.86796569824219,,,,,,,,,
,119,,0,,,,,,1716.791748046875,0.0,1654.0679931640625,62.72374725341797,,,,,
0.00011112,120,,,,,,,,,,,,,,,,
,149,6.802051544189453,1,,,,,,,,,,,,,,
,199,3.7468318939208984,1,,,,,,,,,,,,,,
,239,,1,3.3549466133117676,100.0,100.0,0.0,0.0,,,,,,,,,
,239,,1,,,,,,113.80626678466797,96.28414916992188,14.835845947265625,2.686275005340576,,,,,
0.00022223000000000002,240,,,,,,,,,,,,,,,,
,249,3.387524366378784,2,,,,,,,,,,,,,,
,299,3.244659900665283,2,,,,,,,,,,,,,,
,349,3.193211078643799,2,,,,,,,,,,,,,,
,359,,2,3.2201263904571533,100.0,100.0,0.0,0.0,,,,,,,,,
,359,,2,,,,,,100.0,100.0,0.0,0.0,,,,,
0.00033334,360,,,,,,,,,,,,,,,,
,399,3.5928256511688232,3,,,,,,,,,,,,,,
,449,3.3103013038635254,3,,,,,,,,,,,,,,
,479,,3,3.1004302501678467,100.0,100.0,0.0,0.0,,,,,,,,,
,479,,3,,,,,,100.0,100.0,0.0,0.0,,,,,
0.00044445,480,,,,,,,,,,,,,,,,
,499,3.289479970932007,4,,,,,,,,,,,,,,
,549,3.0765304565429688,4,,,,,,,,,,,,,,
,599,3.0756916999816895,4,,,,,,,,,,,,,,
,599,,4,3.054882049560547,100.0,100.0,0.0,0.0,,,,,,,,,
,599,,4,,,,,,100.0,100.0,0.0,0.0,,,,,
0.00055556,600,,,,,,,,,,,,,,,,
,649,3.1211681365966797,5,,,,,,,,,,,,,,
,699,2.97579288482666,5,,,,,,,,,,,,,,
,719,,5,2.974497079849243,100.0,100.0,0.0,0.0,,,,,,,,,
,719,,5,,,,,,100.0,100.0,0.0,0.0,,,,,
0.00066667,720,,,,,,,,,,,,,,,,
,749,3.1319899559020996,6,,,,,,,,,,,,,,
,799,2.940608024597168,6,,,,,,,,,,,,,,
,839,,6,2.933150053024292,100.0,100.0,0.0,0.0,,,,,,,,,
,839,,6,,,,,,99.99588775634766,99.99588775634766,0.0,0.0,,,,,
0.0007777799999999999,840,,,,,,,,,,,,,,,,
,849,2.972989559173584,7,,,,,,,,,,,,,,
,899,3.0545716285705566,7,,,,,,,,,,,,,,
,949,2.87380313873291,7,,,,,,,,,,,,,,
,959,,7,2.8713643550872803,100.0,100.0,0.0,0.0,,,,,,,,,
,959,,7,,,,,,99.98348999023438,99.98348999023438,0.0,0.0,,,,,
0.0008888899999999999,960,,,,,,,,,,,,,,,,
,999,2.9581313133239746,8,,,,,,,,,,,,,,
,1049,2.8772082328796387,8,,,,,,,,,,,,,,
,1079,,8,2.88999080657959,100.0,100.0,0.0,0.0,,,,,,,,,
,1079,,8,,,,,,99.98760223388672,99.98760223388672,0.0,0.0,,,,,
0.001,1080,,,,,,,,,,,,,,,,
,1099,2.9282994270324707,9,,,,,,,,,,,,,,
,1149,2.828761100769043,9,,,,,,,,,,,,,,
,1199,2.887199640274048,9,,,,,,,,,,,,,,
,1199,,9,2.659381866455078,100.0,100.0,0.0,0.0,,,,,,,,,
,1199,,9,,,,,,99.98902130126953,99.98902130126953,0.0,0.0,,,,,
0.001,1200,,,,,,,,,,,,,,,,
,1249,2.734496593475342,10,,,,,,,,,,,,,,
,1299,2.589078903198242,10,,,,,,,,,,,,,,
,1319,,10,2.4074606895446777,98.93663787841797,98.87017822265625,0.0,0.06645990163087845,,,,,,,,,
,1319,,10,,,,,,99.5743179321289,99.5468521118164,0.0,0.02746347337961197,,,,,
0.000999874243353782,1320,,,,,,,,,,,,,,,,
,1349,2.792074680328369,11,,,,,,,,,,,,,,
,1399,2.4838244915008545,11,,,,,,,,,,,,,,
,1439,,11,2.4919393062591553,95.63580322265625,95.48072814941406,0.0,0.1550731062889099,,,,,,,,,
,1439,,11,,,,,,96.8236312866211,96.64617156982422,0.0,0.17745862901210785,,,,,
0.0009994970367373866,1440,,,,,,,,,,,,,,,,
,1449,2.49086332321167,12,,,,,,,,,,,,,,
,1499,2.8538999557495117,12,,,,,,,,,,,,,,
,1549,3.7056944370269775,12,,,,,,,,,,,,,,
,1559,,12,3.3218350410461426,100.0,100.0,0.0,0.0,,,,,,,,,
,1559,,12,,,,,,97.32579803466797,97.07353973388672,0.0,0.25225722789764404,,,,,
0.0009988685700857047,1560,,,,,,,,,,,,,,,,
,1599,3.357306480407715,13,,,,,,,,,,,,,,
,1649,3.341301918029785,13,,,,,,,,,,,,,,
,1679,,13,3.195274591445923,100.0,100.0,0.0,0.0,,,,,,,,,
,1679,,13,,,,,,100.0,100.0,0.0,0.0,,,,,
0.0009979891598506218,1680,,,,,,,,,,,,,,,,
,1699,3.2481017112731934,14,,,,,,,,,,,,,,
,1749,3.2111921310424805,14,,,,,,,,,,,,,,
,1799,3.024580478668213,14,,,,,,,,,,,,,,
,1799,,14,2.810743570327759,100.0,100.0,0.0,0.0,,,,,,,,,
,1799,,14,,,,,,99.96832275390625,99.96832275390625,0.0,0.0,,,,,
0.0009968592488416746,1800,,,,,,,,,,,,,,,,
,1849,2.7668354511260986,15,,,,,,,,,,,,,,
,1899,2.6294775009155273,15,,,,,,,,,,,,,,
,1919,,15,2.4006412029266357,99.2689437866211,99.2246322631836,0.0,0.04430660232901573,,,,,,,,,
,1919,,15,,,,,,99.59252166748047,99.56774139404297,0.0,0.024779053404927254,,,,,
0.0009954794060030834,1920,,,,,,,,,,,,,,,,
,1949,2.605625629425049,16,,,,,,,,,,,,,,
,1999,2.3595290184020996,16,,,,,,,,,,,,,,
,2039,,16,2.3536250591278076,92.42356872558594,92.02481079101562,0.0,0.3987594246864319,,,,,,,,,
,2039,,16,,,,,,95.6506118774414,95.50310516357422,0.001378568820655346,0.14612829685211182,,,,,
0.0009938503261272714,2040,,,,,,,,,,,,,,,,
,2049,2.205681324005127,17,,,,,,,,,,,,,,
,2099,2.236994743347168,17,,,,,,,,,,,,,,
,2149,2.1401922702789307,17,,,,,,,,,,,,,,
,2159,,17,2.0348408222198486,84.75852966308594,82.91980743408203,0.0,1.8387240171432495,,,,,,,,,
,2159,,17,,,,,,85.2278823852539,83.43968963623047,0.0013723633019253612,1.7868170738220215,,,,,
0.0009919728295050155,2160,,,,,,,,,,,,,,,,
,2199,2.0048325061798096,18,,,,,,,,,,,,,,
,2249,1.968196988105774,18,,,,,,,,,,,,,,
,2279,,18,2.0260002613067627,83.2964096069336,80.7930908203125,0.0,2.5033230781555176,,,,,,,,,
,2279,,18,,,,,,80.15245056152344,76.276611328125,0.00686718849465251,3.868973970413208,,,,,
0.0009898478615124062,2280,,,,,,,,,,,,,,,,
,2299,2.0370934009552,19,,,,,,,,,,,,,,
,2349,1.8819093704223633,19,,,,,,,,,,,,,,
,2399,1.9388726949691772,19,,,,,,,,,,,,,,
,2399,,19,1.7023909091949463,70.3145751953125,64.13380432128906,0.04430660232901573,6.1364641189575195,,,,,,,,,
,2399,,19,,,,,,75.40216827392578,69.45465087890625,0.006880512926727533,5.940634727478027,,,,,
0.000987476492134821,2400,,,,,,,,,,,,,,,,
,2449,2.1675615310668945,20,,,,,,,,,,,,,,
,2499,1.7986159324645996,20,,,,,,,,,,,,,,
,2519,,20,1.6291651725769043,68.1435546875,60.722198486328125,0.04430660232901573,7.377048969268799,,,,,,,,,
,2519,,20,,,,,,70.31946563720703,62.573604583740234,0.04265037551522255,7.7032084465026855,,,,,
0.0009848599154281552,2520,,,,,,,,,,,,,,,,
,2549,1.801332950592041,21,,,,,,,,,,,,,,
,2599,1.8572466373443604,21,,,,,,,,,,,,,,
,2639,,21,1.6404012441635132,64.24457550048828,56.64598846435547,0.022153301164507866,7.5764288902282715,,,,,,,,,
,2639,,21,,,,,,61.78926467895508,49.34626007080078,0.18540899455547333,12.25759506225586,,,,,
0.0009819994489175788,2640,,,,,,,,,,,,,,,,
,2649,1.7752084732055664,22,,,,,,,,,,,,,,
,2699,1.600231409072876,22,,,,,,,,,,,,,,
,2749,1.544971227645874,22,,,,,,,,,,,,,,
,2759,,22,1.318313717842102,42.60079574584961,21.9317684173584,0.7753655314445496,19.89366340637207,,,,,,,,,
,2759,,22,,,,,,51.8493537902832,33.20169448852539,0.572419285774231,18.075239181518555,,,,,
0.0009788965329341228,2760,,,,,,,,,,,,,,,,
,2799,1.5382108688354492,23,,,,,,,,,,,,,,
,2849,1.388775110244751,23,,,,,,,,,,,,,,
,2879,,23,1.2188671827316284,38.502437591552734,19.561365127563477,1.2627381086349487,17.678333282470703,,,,,,,,,
,2879,,23,,,,,,47.02539825439453,26.726011276245117,0.8599103093147278,19.439476013183594,,,,,
0.0009755527298894293,2880,,,,,,,,,,,,,,,,
,2899,1.4025976657867432,24,,,,,,,,,,,,,,
,2949,1.3204752206802368,24,,,,,,,,,,,,,,
,2999,1.314204216003418,24,,,,,,,,,,,,,,
,2999,,24,1.2072609663009644,37.52769088745117,16.41559600830078,1.2184315919876099,19.89366340637207,,,,,,,,,
,2999,,24,,,,,,43.53030014038086,23.011625289916992,0.9355437755584717,19.583131790161133,,,,,
0.0009719697234890296,3000,,,,,,,,,,,,,,,,
,3049,1.3955260515213013,25,,,,,,,,,,,,,,
,3099,1.2436027526855469,25,,,,,,,,,,,,,,
,3119,,25,1.1861486434936523,36.530792236328125,15.994683265686035,1.4178112745285034,19.11829948425293,,,,,,,,,
,3119,,25,,,,,,40.901214599609375,20.276662826538086,1.1908035278320312,19.43375015258789,,,,,
0.0009681493178845487,3120,,,,,,,,,,,,,,,,
,3149,1.3761844635009766,26,,,,,,,,,,,,,,
,3199,1.2734711170196533,26,,,,,,,,,,,,,,
,3239,,26,1.1074492931365967,33.62871170043945,12.981834411621094,1.3956578969955444,19.251218795776367,,,,,,,,,
,3239,,26,,,,,,39.74433135986328,19.182079315185547,1.3141237497329712,19.24812889099121,,,,,
0.0009640934367652599,3240,,,,,,,,,,,,,,,,
,3249,1.4511691331863403,27,,,,,,,,,,,,,,
,3299,1.4546960592269897,27,,,,,,,,,,,,,,
,3349,1.2812612056732178,27,,,,,,,,,,,,,,
,3359,,27,1.1454845666885376,35.29020690917969,14.37749195098877,1.2405848503112793,19.672130584716797,,,,,,,,,
,3359,,27,,,,,,38.24600601196289,17.760671615600586,1.4499351978302002,19.035400390625,,,,,
0.0009598041223894496,3360,,,,,,,,,,,,,,,,
,3399,1.1318910121917725,28,,,,,,,,,,,,,,
,3449,1.3148255348205566,28,,,,,,,,,,,,,,
,3479,,28,1.0756444931030273,33.008419036865234,11.253876686096191,2.0159504413604736,19.738590240478516,,,,,,,,,
,3479,,28,,,,,,36.171119689941406,15.780287742614746,1.4690523147583008,18.92177963256836,,,,,
0.0009552835345560785,3480,,,,,,,,,,,,,,,,
,3499,1.2359076738357544,29,,,,,,,,,,,,,,
,3549,1.2976908683776855,29,,,,,,,,,,,,,,
,3599,1.1003236770629883,29,,,,,,,,,,,,,,
,3599,,29,1.0057530403137207,31.94506072998047,12.84891414642334,1.2184315919876099,17.877714157104492,,,,,,,,,
,3599,,29,,,,,,34.593467712402344,14.70826530456543,1.5448416471481323,18.34035873413086,,,,,
0.0009505339495172582,3600,,,,,,,,,,,,,,,,
,3649,1.1286165714263916,30,,,,,,,,,,,,,,
,3699,1.266413688659668,30,,,,,,,,,,,,,,
,3719,,30,1.0486549139022827,31.19184684753418,10.279131889343262,2.193176746368408,18.719539642333984,,,,,,,,,
,3719,,30,,,,,,33.14629364013672,13.728923797607422,1.6626914739608765,17.754676818847656,,,,,
0.0009455577588320895,3720,,,,,,,,,,,,,,,,
,3749,1.2069480419158936,31,,,,,,,,,,,,,,
,3799,1.2133450508117676,31,,,,,,,,,,,,,,
,3839,,31,0.9693226218223572,30.593708038330078,12.671688079833984,1.129818320274353,16.79220199584961,,,,,,,,,
,3839,,31,,,,,,32.33167266845703,12.97081470489502,1.6616584062576294,17.699199676513672,,,,,
0.0009403574681624404,3840,,,,,,,,,,,,,,,,
,3849,1.0262665748596191,32,,,,,,,,,,,,,,
,3899,0.9631417393684387,32,,,,,,,,,,,,,,
,3949,1.1753779649734497,32,,,,,,,,,,,,,,
,3959,,32,0.995060384273529,28.954364776611328,7.687195301055908,2.5254762172698975,18.74169158935547,,,,,,,,,
,3959,,32,,,,,,31.50513458251953,12.506359100341797,1.7612847089767456,17.237491607666016,,,,,
0.0009349356960112697,3960,,,,,,,,,,,,,,,,
,3999,0.9618884325027466,33,,,,,,,,,,,,,,
,4049,1.0360164642333984,33,,,,,,,,,,,,,,
,4079,,33,0.9096453785896301,27.337173461914062,8.174568176269531,1.860877275466919,17.301727294921875,,,,,,,,,
,4079,,33,,,,,,30.68639373779297,11.671998023986816,1.7097787857055664,17.304616928100586,,,,,
0.0009292951724041319,4080,,,,,,,,,,,,,,,,
,4099,0.8623418807983398,34,,,,,,,,,,,,,,
,4149,1.1655497550964355,34,,,,,,,,,,,,,,
,4199,1.0204304456710815,34,,,,,,,,,,,,,,
,4199,,34,0.9329417943954468,29.153743743896484,10.65573787689209,1.3513513803482056,17.14665412902832,,,,,,,,,
,4199,,34,,,,,,29.210859298706055,10.959223747253418,1.7654008865356445,16.486234664916992,,,,,
0.0009234387375145277,4200,,,,,,,,,,,,,,,,
,4249,0.9164794087409973,35,,,,,,,,,,,,,,
,4299,0.8285025954246521,35,,,,,,,,,,,,,,
,4319,,35,0.9494742751121521,28.5777587890625,9.215773582458496,1.5285778045654297,17.833406448364258,,,,,,,,,
,4319,,35,,,,,,28.61256217956543,10.69612979888916,1.8198851346969604,16.096546173095703,,,,,
0.0009173693402337905,4320,,,,,,,,,,,,,,,,
,4349,0.8658422231674194,36,,,,,,,,,,,,,,
,4399,0.9483742117881775,36,,,,,,,,,,,,,,
,4439,,36,0.8804307579994202,27.53655242919922,10.434205055236816,1.2627381086349487,15.83961009979248,,,,,,,,,
,4439,,36,,,,,,27.68535614013672,10.220520973205566,1.8224776983261108,15.64235782623291,,,,,
0.0009110900366862309,4440,,,,,,,,,,,,,,,,
,4449,0.9644186496734619,37,,,,,,,,,,,,,,
,4499,0.9209277033805847,37,,,,,,,,,,,,,,
,4549,0.7818289399147034,37,,,,,,,,,,,,,,
,4559,,37,0.8915744423866272,26.650421142578125,7.066903114318848,1.8165706396102905,17.76694679260254,,,,,,,,,
,4559,,37,,,,,,26.391324996948242,9.412252426147461,1.8067545890808105,15.172318458557129,,,,,
0.000904603988690286,4560,,,,,,,,,,,,,,,,
,4599,0.9394121170043945,38,,,,,,,,,,,,,,
,4649,0.9378832578659058,38,,,,,,,,,,,,,,
,4679,,38,0.9958301782608032,29.751882553100586,11.652636528015137,1.2405848503112793,16.858661651611328,,,,,,,,,
,4679,,38,,,,,,25.450973510742188,8.938409805297852,1.9028123617172241,14.60975170135498,,,,,
0.0008979144621664494,4680,,,,,,,,,,,,,,,,
,4699,0.9507976770401001,39,,,,,,,,,,,,,,
,4749,0.8708837032318115,39,,,,,,,,,,,,,,
,4799,0.9593843817710876,39,,,,,,,,,,,,,,
,4799,,39,0.8862981200218201,27.514400482177734,9.525918960571289,1.1962782144546509,16.79220199584961,,,,,,,,,
,4799,,39,,,,,,25.21828842163086,8.79889965057373,1.8081815242767334,14.611207008361816,,,,,
0.0008910248254927808,4800,,,,,,,,,,,,,,,,
,4849,0.7717195749282837,40,,,,,,,,,,,,,,
,4899,0.740958571434021,40,,,,,,,,,,,,,,
,4919,,40,0.8627995252609253,26.583961486816406,9.304386138916016,1.2627381086349487,16.016836166381836,,,,,,,,,
,4919,,40,,,,,,24.35936164855957,8.603641510009766,1.928094744682312,13.827625274658203,,,,,
0.0008839385478088264,4920,,,,,,,,,,,,,,,,
,4949,0.6826969385147095,41,,,,,,,,,,,,,,
,4999,0.811049222946167,41,,,,,,,,,,,,,,
,5039,,41,0.8503884077072144,24.878156661987305,6.845369815826416,1.860877275466919,16.17190933227539,,,,,,,,,
,5039,,41,,,,,,23.582672119140625,8.238386154174805,1.8507815599441528,13.493505477905273,,,,,
0.0008766591972688036,5040,,,,,,,,,,,,,,,,
,5049,0.7932934761047363,42,,,,,,,,,,,,,,
,5099,0.718158483505249,42,,,,,,,,,,,,,,
,5149,0.868166446685791,42,,,,,,,,,,,,,,
,5159,,42,0.8678919672966003,25.21045684814453,6.114311218261719,2.1045634746551514,16.991580963134766,,,,,,,,,
,5159,,42,,,,,,23.070045471191406,8.087032318115234,1.9364866018295288,13.046527862548828,,,,,
0.0008691904392449266,5160,,,,,,,,,,,,,,,,
,5199,0.7592837810516357,43,,,,,,,,,,,,,,
,5249,0.7607231140136719,43,,,,,,,,,,,,,,
,5279,,43,0.9114289283752441,26.118741989135742,7.288435935974121,1.9716438055038452,16.858661651611328,,,,,,,,,
,5279,,43,,,,,,22.1011905670166,7.5961222648620605,1.8838822841644287,12.621185302734375,,,,,
0.000861536034481782,5280,,,,,,,,,,,,,,,,
,5299,0.6758193969726562,44,,,,,,,,,,,,,,
,5349,0.7039613723754883,44,,,,,,,,,,,,,,
,5399,0.821029782295227,44,,,,,,,,,,,,,,
,5399,,44,0.8306496143341064,24.457244873046875,7.133362770080566,1.5064244270324707,15.81745719909668,,,,,,,,,
,5399,,44,,,,,,21.793672561645508,7.526822566986084,1.8115543127059937,12.45529556274414,,,,,
0.0008536998372026804,5400,,,,,,,,,,,,,,,,
,5449,0.6780712604522705,45,,,,,,,,,,,,,,
,5499,0.7423070669174194,45,,,,,,,,,,,,,,
,5519,,45,0.8409695625305176,23.925565719604492,7.31058931350708,1.6393442153930664,14.975631713867188,,,,,,,,,
,5519,,45,,,,,,21.03468132019043,7.33243465423584,1.8344838619232178,11.86776351928711,,,,,
0.0008456857931689388,5520,,,,,,,,,,,,,,,,
,5549,0.8123734593391418,46,,,,,,,,,,,,,,
,5599,0.8723019361495972,46,,,,,,,,,,,,,,
,5639,,46,0.8185610771179199,23.416038513183594,6.2472310066223145,2.0159504413604736,15.152857780456543,,,,,,,,,
,5639,,46,,,,,,20.427915573120117,6.995635509490967,1.7829852104187012,11.649295806884766,,,,,
0.000837497937693071,5640,,,,,,,,,,,,,,,,
,5649,0.7948174476623535,47,,,,,,,,,,,,,,
,5699,0.7490247488021851,47,,,,,,,,,,,,,,
,5749,0.6120830774307251,47,,,,,,,,,,,,,,
,5759,,47,0.8387191891670227,24.05848503112793,7.089056491851807,1.3070447444915771,15.662384033203125,,,,,,,,,
,5759,,47,,,,,,20.211503982543945,7.3723249435424805,1.8668651580810547,10.97231388092041,,,,,
0.0008291403936068863,5760,,,,,,,,,,,,,,,,
,5799,0.6445071697235107,48,,,,,,,,,,,,,,
,5849,0.6731081008911133,48,,,,,,,,,,,,,,
,5879,,48,0.8212265968322754,22.88435935974121,6.357997417449951,1.7279574871063232,14.798404693603516,,,,,,,,,
,5879,,48,,,,,,20.16431999206543,7.037969589233398,1.8234864473342896,11.302864074707031,,,,,
0.0008206173691855193,5880,,,,,,,,,,,,,,,,
,5899,0.5840100646018982,49,,,,,,,,,,,,,,
,5949,0.6316052675247192,49,,,,,,,,,,,,,,
,5999,0.8005374670028687,49,,,,,,,,,,,,,,
,5999,,49,0.8798156380653381,23.969871520996094,4.740806579589844,3.0128488540649414,16.216217041015625,,,,,,,,,
,5999,,49,,,,,,18.654441833496094,6.5150556564331055,1.8061541318893433,10.333232879638672,,,,,
0.0008119331560284373,6000,,,,,,,,,,,,,,,,
,6049,0.783765435218811,50,,,,,,,,,,,,,,
,6099,0.5913221836090088,50,,,,,,,,,,,,,,
,6119,,50,0.8830536007881165,24.634469985961914,5.914931297302246,2.0824103355407715,16.637128829956055,,,,,,,,,
,6119,,50,,,,,,18.585466384887695,6.680736064910889,1.785640835762024,10.119088172912598,,,,,
0.0008030921268984896,6120,,,,,,,,,,,,,,,,
,6149,0.5822858810424805,51,,,,,,,,,,,,,,
,6199,0.5924789309501648,51,,,,,,,,,,,,,,
,6239,,51,0.8574743270874023,23.327425003051758,6.734603404998779,1.5950376987457275,14.997784614562988,,,,,,,,,
,6239,,51,,,,,,17.283288955688477,6.200560092926025,1.737255573272705,9.345473289489746,,,,,
0.0007940987335200902,6240,,,,,,,,,,,,,,,,
,6249,0.5800666809082031,52,,,,,,,,,,,,,,
,6299,0.6589412689208984,52,,,,,,,,,,,,,,
,6349,0.5075190663337708,52,,,,,,,,,,,,,,
,6359,,52,0.8590052723884583,23.083740234375,5.139565944671631,2.193176746368408,15.750996589660645,,,,,,,,,
,6359,,52,,,,,,17.349454879760742,6.250430107116699,1.7653782367706299,9.333645820617676,,,,,
0.0007849575043376416,6360,,,,,,,,,,,,,,,,
,6399,0.5513736605644226,53,,,,,,,,,,,,,,
,6449,0.6485832929611206,53,,,,,,,,,,,,,,
,6479,,53,0.8876364231109619,24.767391204833984,7.775808811187744,1.373504638671875,15.618077278137207,,,,,,,,,
,6479,,53,,,,,,17.12315559387207,6.171547889709473,1.75346839427948,9.198139190673828,,,,,
0.000775673042235325,6480,,,,,,,,,,,,,,,,
,6499,0.6163184642791748,54,,,,,,,,,,,,,,
,6549,0.6689727306365967,54,,,,,,,,,,,,,,
,6599,0.5894655585289001,54,,,,,,,,,,,,,,
,6599,,54,0.8157129883766174,22.862207412719727,6.003544330596924,1.794417381286621,15.064244270324707,,,,,,,,,
,6599,,54,,,,,,16.546772003173828,5.991951942443848,1.707458257675171,8.847362518310547,,,,,
0.0007662500222194103,6600,,,,,,,,,,,,,,,,
,6649,0.6037255525588989,55,,,,,,,,,,,,,,
,6699,0.49405622482299805,55,,,,,,,,,,,,,,
,6719,,55,0.8468810319900513,22.352680206298828,4.940186023712158,2.0159504413604736,15.396544456481934,,,,,,,,,
,6719,,55,,,,,,15.950591087341309,5.9351677894592285,1.7351069450378418,8.280316352844238,,,,,
0.00075669318906425,6720,,,,,,,,,,,,,,,,
,6749,0.5073250532150269,56,,,,,,,,,,,,,,
,6799,0.579170823097229,56,,,,,,,,,,,,,,
,6839,,56,0.8526709675788879,23.704030990600586,7.332742691040039,1.5064244270324707,14.86486530303955,,,,,,,,,
,6839,,56,,,,,,15.911726951599121,5.847097396850586,1.7607579231262207,8.303872108459473,,,,,
0.0007470073549231411,6840,,,,,,,,,,,,,,,,
,6849,0.43094655871391296,57,,,,,,,,,,,,,,
,6899,0.5344266891479492,57,,,,,,,,,,,,,,
,6949,0.4984992742538452,57,,,,,,,,,,,,,,
,6959,,57,0.8784235715866089,23.01727867126465,5.737704753875732,1.617190957069397,15.662384033203125,,,,,,,,,
,6959,,57,,,,,,15.220346450805664,5.692352294921875,1.6493401527404785,7.878654479980469,,,,,
0.0007371973969052627,6960,,,,,,,,,,,,,,,,
,6999,0.40334242582321167,58,,,,,,,,,,,,,,
,7049,0.5698953866958618,58,,,,,,,,,,,,,,
,7079,,58,0.8734279274940491,23.57111167907715,7.133362770080566,1.5285778045654297,14.909171104431152,,,,,,,,,
,7079,,58,,,,,,14.672429084777832,5.37559175491333,1.715030550956726,7.5818071365356445,,,,,
0.0007272682546199035,7080,,,,,,,,,,,,,,,,
,7099,0.35226887464523315,59,,,,,,,,,,,,,,
,7149,0.40076595544815063,59,,,,,,,,,,,,,,
,7199,0.46428626775741577,59,,,,,,,,,,,,,,
,7199,,59,0.9126705527305603,23.416038513183594,5.582631587982178,2.1267168521881104,15.706689834594727,,,,,,,,,
,7199,,59,,,,,,13.771308898925781,5.300046920776367,1.6152130365371704,6.856049060821533,,,,,
0.0007172249276892202,7200,,,,,,,,,,,,,,,,
,7249,0.45014292001724243,60,,,,,,,,,,,,,,
,7299,0.483639657497406,60,,,,,,,,,,,,,,
,7319,,60,0.8306300044059753,22.241914749145508,5.626938343048096,1.5285778045654297,15.086398124694824,,,,,,,,,
,7319,,60,,,,,,13.533967971801758,5.278644561767578,1.5998796224594116,6.655444145202637,,,,,
0.0007070724732307769,7320,,,,,,,,,,,,,,,,
,7349,0.49013572931289673,61,,,,,,,,,,,,,,
,7399,0.5256310105323792,61,,,,,,,,,,,,,,
,7439,,61,0.8856387734413147,23.615419387817383,7.066903114318848,1.373504638671875,15.175010681152344,,,,,,,,,
,7439,,61,,,,,,12.820301055908203,5.163387775421143,1.5484652519226074,6.108447551727295,,,,,
0.0006968160033111347,7440,,,,,,,,,,,,,,,,
,7449,0.43111854791641235,62,,,,,,,,,,,,,,
,7499,0.5550571084022522,62,,,,,,,,,,,,,,
,7549,0.5108007192611694,62,,,,,,,,,,,,,,
,7559,,62,0.8732999563217163,22.84005355834961,7.6207356452941895,1.3513513803482056,13.867966651916504,,,,,,,,,
,7559,,62,,,,,,12.75512981414795,4.997793674468994,1.5376765727996826,6.21966028213501,,,,,
0.0006864606823717715,7560,,,,,,,,,,,,,,,,
,7599,0.5709142684936523,63,,,,,,,,,,,,,,
,7649,0.3616498112678528,63,,,,,,,,,,,,,,
,7679,,63,0.8961822986602783,23.083740234375,6.756756782531738,1.1076650619506836,15.219317436218262,,,,,,,,,
,7679,,63,,,,,,12.308199882507324,5.040422439575195,1.534400224685669,5.733377456665039,,,,,
0.0006760117246286306,7680,,,,,,,,,,,,,,,,
,7699,0.5273447036743164,64,,,,,,,,,,,,,,
,7749,0.4806884825229645,64,,,,,,,,,,,,,,
,7799,0.4818725287914276,64,,,,,,,,,,,,,,
,7799,,64,0.8897190690040588,22.064687728881836,5.604784965515137,1.8387240171432495,14.62117862701416,,,,,,,,,
,7799,,64,,,,,,11.520807266235352,4.720740795135498,1.5062392950057983,5.293826580047607,,,,,
0.0006654743914466059,7800,,,,,,,,,,,,,,,,
,7849,0.36608076095581055,65,,,,,,,,,,,,,,
,7899,0.4556242823600769,65,,,,,,,,,,,,,,
,7919,,65,0.9191480875015259,22.729286193847656,5.582631587982178,1.9273371696472168,15.219317436218262,,,,,,,,,
,7919,,65,,,,,,11.114632606506348,4.6472859382629395,1.4494351148605347,5.017911434173584,,,,,
0.0006548539886902862,7920,,,,,,,,,,,,,,,,
,7949,0.4679073393344879,66,,,,,,,,,,,,,,
,7999,0.36631643772125244,66,,,,,,,,,,,,,,
,8039,,66,0.934567928314209,23.726184844970703,6.1586174964904785,1.617190957069397,15.950376510620117,,,,,,,,,
,8039,,66,,,,,,11.48232364654541,4.7357177734375,1.449934482574463,5.296671390533447,,,,,
0.0006441558640522925,8040,,,,,,,,,,,,,,,,
,8049,0.48773273825645447,67,,,,,,,,,,,,,,
,8099,0.410422146320343,67,,,,,,,,,,,,,,
,8149,0.33746495842933655,67,,,,,,,,,,,,,,
,8159,,67,0.9266135096549988,22.88435935974121,5.914931297302246,1.9716438055038452,14.997784614562988,,,,,,,,,
,8159,,67,,,,,,11.314677238464355,4.713072299957275,1.5223884582519531,5.079216480255127,,,,,
0.000633385404360554,8160,,,,,,,,,,,,,,,,
,8199,0.49522727727890015,68,,,,,,,,,,,,,,
,8249,0.35442468523979187,68,,,,,,,,,,,,,,
,8279,,68,0.9028750658035278,22.817899703979492,6.1586174964904785,1.5728843212127686,15.086398124694824,,,,,,,,,
,8279,,68,,,,,,11.247941017150879,4.686985015869141,1.538989543914795,5.021965980529785,,,,,
0.0006225480328658779,8280,,,,,,,,,,,,,,,,
,8299,0.5776304006576538,69,,,,,,,,,,,,,,
,8349,0.44581103324890137,69,,,,,,,,,,,,,,
,8399,0.3795018494129181,69,,,,,,,,,,,,,,
,8399,,69,0.9196922779083252,21.66592788696289,5.338945388793945,1.8165706396102905,14.510412216186523,,,,,,,,,
,8399,,69,,,,,,10.648568153381348,4.678603649139404,1.4605165719985962,4.509448051452637,,,,,
0.0006116492065111788,8400,,,,,,,,,,,,,,,,
,8449,0.36432945728302,70,,,,,,,,,,,,,,
,8499,0.4870261549949646,70,,,,,,,,,,,,,,
,8519,,70,0.9224164485931396,23.061586380004883,7.133362770080566,1.6393442153930664,14.28887939453125,,,,,,,,,
,8519,,70,,,,,,9.73574447631836,4.345970153808594,1.4032139778137207,3.986560106277466,,,,,
0.0006006944131837446,8520,,,,,,,,,,,,,,,,
,8549,0.4083217978477478,71,,,,,,,,,,,,,,
,8599,0.28442567586898804,71,,,,,,,,,,,,,,
,8639,,71,0.9156971573829651,21.887460708618164,4.452813625335693,2.281790018081665,15.152857780456543,,,,,,,,,
,8639,,71,,,,,,9.511164665222168,4.302244186401367,1.3510724306106567,3.8578484058380127,,,,,
0.0005896891689519189,8640,,,,,,,,,,,,,,,,
,8649,0.33570945262908936,72,,,,,,,,,,,,,,
,8699,0.4005313813686371,72,,,,,,,,,,,,,,
,8749,0.33366239070892334,72,,,,,,,,,,,,,,
,8759,,72,0.9246066808700562,22.308374404907227,6.357997417449951,1.794417381286621,14.155959129333496,,,,,,,,,
,8759,,72,,,,,,8.94185733795166,4.075502872467041,1.3061449527740479,3.5602095127105713,,,,,
0.0005786390152875952,8760,,,,,,,,,,,,,,,,
,8799,0.3293308913707733,73,,,,,,,,,,,,,,
,8849,0.41300126910209656,73,,,,,,,,,,,,,,
,8879,,73,0.9701861143112183,22.441293716430664,4.541426658630371,2.5254762172698975,15.374390602111816,,,,,,,,,
,8879,,73,,,,,,8.842772483825684,4.186154842376709,1.3044015169143677,3.3522157669067383,,,,,
0.0005675495162759188,8880,,,,,,,,,,,,,,,,
,8899,0.34006816148757935,74,,,,,,,,,,,,,,
,8949,0.3378562927246094,74,,,,,,,,,,,,,,
,8999,0.4327363669872284,74,,,,,,,,,,,,,,
,8999,,74,0.9395806789398193,21.66592788696289,5.16171932220459,1.8830305337905884,14.62117862701416,,,,,,,,,
,8999,,74,,,,,,8.441800117492676,3.998457431793213,1.2726746797561646,3.170667886734009,,,,,
0.0005564262558136021,9000,,,,,,,,,,,,,,,,
,9049,0.336075097322464,75,,,,,,,,,,,,,,
,9099,0.33577847480773926,75,,,,,,,,,,,,,,
,9119,,75,0.9925550818443298,22.729286193847656,6.513070583343506,1.5950376987457275,14.62117862701416,,,,,,,,,
,9119,,75,,,,,,8.077066421508789,3.865699052810669,1.2270530462265015,2.984314203262329,,,,,
0.0005452748347972648,9120,,,,,,,,,,,,,,,,
,9149,0.28747469186782837,76,,,,,,,,,,,,,,
,9199,0.38430824875831604,76,,,,,,,,,,,,,,
,9239,,76,0.9454001188278198,21.3779354095459,6.114311218261719,1.5507310628890991,13.71289348602295,,,,,,,,,
,9239,,76,,,,,,7.896547794342041,3.8416011333465576,1.13417387008667,2.9207730293273926,,,,,
0.0005341008683032136,9240,,,,,,,,,,,,,,,,
,9249,0.35354313254356384,77,,,,,,,,,,,,,,
,9299,0.3815920352935791,77,,,,,,,,,,,,,,
,9349,0.22677487134933472,77,,,,,,,,,,,,,,
,9359,,77,0.9663457274436951,22.817899703979492,7.465662479400635,1.2405848503112793,14.111652374267578,,,,,,,,,
,9359,,77,,,,,,7.398977279663086,3.662466287612915,1.1737443208694458,2.5627665519714355,,,,,
0.0005229099827600821,9360,,,,,,,,,,,,,,,,
,9399,0.30430394411087036,78,,,,,,,,,,,,,,
,9449,0.3387773633003235,78,,,,,,,,,,,,,,
,9479,,78,1.0013446807861328,22.33052635192871,5.516171932220459,1.9494904279708862,14.86486530303955,,,,,,,,,
,9479,,78,,,,,,7.434995174407959,3.6281678676605225,1.118685007095337,2.6881425380706787,,,,,
0.0005117078131157544,9480,,,,,,,,,,,,,,,,
,9499,0.28334856033325195,79,,,,,,,,,,,,,,
,9549,0.38944917917251587,79,,,,,,,,,,,,,,
,9599,0.22866885364055634,79,,,,,,,,,,,,,,
,9599,,79,0.9934023022651672,22.862207412719727,7.377048969268799,1.2405848503112793,14.244572639465332,,,,,,,,,
,9599,,79,,,,,,7.217106819152832,3.5699002742767334,1.160976767539978,2.48622989654541,,,,,
0.0005004999999999998,9600,,,,,,,,,,,,,,,,
,9649,0.4237234592437744,80,,,,,,,,,,,,,,
,9699,0.35413214564323425,80,,,,,,,,,,,,,,
,9719,,80,1.0307321548461914,22.374834060668945,5.78201150894165,1.7279574871063232,14.86486530303955,,,,,,,,,
,9719,,80,,,,,,7.617907524108887,3.8096418380737305,1.1790765523910522,2.6291892528533936,,,,,
0.0004892921868842453,9720,,,,,,,,,,,,,,,,
,9749,0.2534312605857849,81,,,,,,,,,,,,,,
,9799,0.3099246323108673,81,,,,,,,,,,,,,,
,9839,,81,0.9899239540100098,22.28622055053711,7.199822902679443,1.373504638671875,13.71289348602295,,,,,,,,,
,9839,,81,,,,,,7.469822883605957,3.803119659423828,1.1822741031646729,2.484429359436035,,,,,
0.0004780900172399177,9840,,,,,,,,,,,,,,,,
,9849,0.2490236759185791,82,,,,,,,,,,,,,,
,9899,0.1603282392024994,82,,,,,,,,,,,,,,
,9949,0.31343674659729004,82,,,,,,,,,,,,,,
,9959,,82,0.9731184840202332,21.710235595703125,6.1807708740234375,1.4178112745285034,14.111652374267578,,,,,,,,,
,9959,,82,,,,,,6.456625938415527,3.399526834487915,1.0712910890579224,1.9858077764511108,,,,,
0.0004668991316967861,9960,,,,,,,,,,,,,,,,
,9999,0.19203922152519226,83,,,,,,,,,,,,,,
,10049,0.37347716093063354,83,,,,,,,,,,,,,,
,10079,,83,0.9930762648582458,22.264066696166992,6.601683616638184,1.5507310628890991,14.111652374267578,,,,,,,,,
,10079,,83,,,,,,6.468661308288574,3.3981118202209473,1.0666409730911255,2.003908634185791,,,,,
0.0004557251652027349,10080,,,,,,,,,,,,,,,,
,10099,0.23636756837368011,84,,,,,,,,,,,,,,
,10149,0.3181580901145935,84,,,,,,,,,,,,,,
,10199,0.33647996187210083,84,,,,,,,,,,,,,,
,10199,,84,1.0057801008224487,21.333629608154297,5.538325309753418,1.4621179103851318,14.333185195922852,,,,,,,,,
,10199,,84,,,,,,6.281693458557129,3.399892807006836,1.011447548866272,1.8703533411026,,,,,
0.0004445737441863976,10200,,,,,,,,,,,,,,,,
,10249,0.27217376232147217,85,,,,,,,,,,,,,,
,10299,0.20972415804862976,85,,,,,,,,,,,,,,
,10319,,85,0.9953005909919739,20.93486976623535,5.693398475646973,1.617190957069397,13.624279975891113,,,,,,,,,
,10319,,85,,,,,,6.785546779632568,3.4892373085021973,1.0624810457229614,2.233828544616699,,,,,
0.000433450483724081,10320,,,,,,,,,,,,,,,,
,10349,0.29774993658065796,86,,,,,,,,,,,,,,
,10399,0.2572197914123535,86,,,,,,,,,,,,,,
,10439,,86,1.0181361436843872,22.064687728881836,6.1586174964904785,1.3513513803482056,14.554718971252441,,,,,,,,,
,10439,,86,,,,,,6.003146648406982,3.2251386642456055,0.99638432264328,1.7816234827041626,,,,,
0.0004223609847124046,10440,,,,,,,,,,,,,,,,
,10449,0.2891015410423279,87,,,,,,,,,,,,,,
,10499,0.22852535545825958,87,,,,,,,,,,,,,,
,10549,0.18542642891407013,87,,,,,,,,,,,,,,
,10559,,87,0.9787772297859192,21.643774032592773,5.604784965515137,1.617190957069397,14.421798706054688,,,,,,,,,
,10559,,87,,,,,,5.442756175994873,3.0304696559906006,0.9162843227386475,1.496002435684204,,,,,
0.0004113108310480809,10560,,,,,,,,,,,,,,,,
,10599,0.19875192642211914,88,,,,,,,,,,,,,,
,10649,0.3136255741119385,88,,,,,,,,,,,,,,
,10679,,88,1.0044519901275635,21.4222412109375,5.139565944671631,1.9273371696472168,14.355339050292969,,,,,,,,,
,10679,,88,,,,,,5.494731426239014,3.130830764770508,0.9507737755775452,1.4131269454956055,,,,,
0.00040030558681625514,10680,,,,,,,,,,,,,,,,
,10699,0.24318885803222656,89,,,,,,,,,,,,,,
,10749,0.22649765014648438,89,,,,,,,,,,,,,,
,10799,0.31709861755371094,89,,,,,,,,,,,,,,
,10799,,89,1.0071394443511963,21.90961456298828,5.981391429901123,1.6614975929260254,14.266725540161133,,,,,,,,,
,10799,,89,,,,,,5.525272369384766,3.073725461959839,0.9594207406044006,1.49212646484375,,,,,
0.0003893507934888208,10800,,,,,,,,,,,,,,,,
,10849,0.22132840752601624,90,,,,,,,,,,,,,,
,10899,0.1944371461868286,90,,,,,,,,,,,,,,
,10919,,90,1.0315815210342407,22.684980392456055,6.291537284851074,1.7279574871063232,14.665485382080078,,,,,,,,,
,10919,,90,,,,,,5.2289018630981445,3.0300111770629883,0.8572647571563721,1.3416261672973633,,,,,
0.0003784519671341218,10920,,,,,,,,,,,,,,,,
,10949,0.15276753902435303,91,,,,,,,,,,,,,,
,10999,0.2597018778324127,91,,,,,,,,,,,,,,
,11039,,91,1.010463833808899,21.599468231201172,5.693398475646973,1.4621179103851318,14.443952560424805,,,,,,,,,
,11039,,91,,,,,,5.484266757965088,3.0929114818573,0.9400025010108948,1.451352834701538,,,,,
0.00036761459563944575,11040,,,,,,,,,,,,,,,,
,11049,0.2237149178981781,92,,,,,,,,,,,,,,
,11099,0.17935656011104584,92,,,,,,,,,,,,,,
,11149,0.255199134349823,92,,,,,,,,,,,,,,
,11159,,92,1.0230318307876587,21.4222412109375,5.981391429901123,1.6836508512496948,13.757200241088867,,,,,,,,,
,11159,,92,,,,,,5.508072376251221,3.0623340606689453,0.9785705208778381,1.467167615890503,,,,,
0.0003568441359477071,11160,,,,,,,,,,,,,,,,
,11199,0.23167282342910767,93,,,,,,,,,,,,,,
,11249,0.13106226921081543,93,,,,,,,,,,,,,,
,11279,,93,1.0201053619384766,22.28622055053711,6.42445707321167,1.3513513803482056,14.510412216186523,,,,,,,,,
,11279,,93,,,,,,5.1069865226745605,2.9686338901519775,0.8977501392364502,1.2406024932861328,,,,,
0.0003461460113097136,11280,,,,,,,,,,,,,,,,
,11299,0.2797059714794159,94,,,,,,,,,,,,,,
,11349,0.2133052498102188,94,,,,,,,,,,,,,,
,11399,0.17259639501571655,94,,,,,,,,,,,,,,
,11399,,94,1.0319582223892212,21.86530876159668,5.78201150894165,1.7501107454299927,14.333185195922852,,,,,,,,,
,11399,,94,,,,,,4.685527801513672,2.820920944213867,0.8575270175933838,1.0070797204971313,,,,,
0.0003355256085533939,11400,,,,,,,,,,,,,,,,
,11449,0.17467936873435974,95,,,,,,,,,,,,,,
,11499,0.3214150667190552,95,,,,,,,,,,,,,,
,11519,,95,0.9971157908439636,21.62162208557129,5.914931297302246,1.6614975929260254,14.04519271850586,,,,,,,,,
,11519,,95,,,,,,4.512772560119629,2.8180675506591797,0.7824898958206177,0.9122148752212524,,,,,
0.0003249882753713692,11520,,,,,,,,,,,,,,,,
,11549,0.2601315975189209,96,,,,,,,,,,,,,,
,11599,0.22973230481147766,96,,,,,,,,,,,,,,
,11639,,96,1.0136029720306396,22.5299072265625,6.490917205810547,1.3513513803482056,14.687638282775879,,,,,,,,,
,11639,,96,,,,,,4.52219820022583,2.7988667488098145,0.7578258514404297,0.965505838394165,,,,,
0.00031453931762822837,11640,,,,,,,,,,,,,,,,
,11649,0.2005639374256134,97,,,,,,,,,,,,,,
,11699,0.17488598823547363,97,,,,,,,,,,,,,,
,11749,0.16225217282772064,97,,,,,,,,,,,,,,
,11759,,97,1.0491993427276611,20.779796600341797,4.652193069458008,1.9937970638275146,14.133806228637695,,,,,,,,,
,11759,,97,,,,,,4.192984580993652,2.657254219055176,0.7458475828170776,0.7898828983306885,,,,,
0.0003041839966888652,11760,,,,,,,,,,,,,,,,
,11799,0.27125412225723267,98,,,,,,,,,,,,,,
,11849,0.38068687915802,98,,,,,,,,,,,,,,
,11879,,98,1.0656691789627075,22.108993530273438,6.2250776290893555,1.5728843212127686,14.31103229522705,,,,,,,,,
,11879,,98,,,,,,4.671444416046143,2.84468412399292,0.7978320717811584,1.028928279876709,,,,,
0.0002939275267692228,11880,,,,,,,,,,,,,,,,
,11899,0.27441850304603577,99,,,,,,,,,,,,,,
,11949,0.1913488507270813,99,,,,,,,,,,,,,,
,11999,0.20489132404327393,99,,,,,,,,,,,,,,
,11999,,99,1.057352900505066,20.890562057495117,4.7851128578186035,1.7501107454299927,14.355339050292969,,,,,,,,,
,11999,,99,,,,,,4.4406609535217285,2.758592367172241,0.79640793800354,0.8856605291366577,,,,,
0.00028377507231077965,12000,,,,,,,,,,,,,,,,
,12049,0.19378913938999176,100,,,,,,,,,,,,,,
,12099,0.19317980110645294,100,,,,,,,,,,,,,,
,12119,,100,1.038667917251587,21.444395065307617,5.183872222900391,1.6614975929260254,14.59902572631836,,,,,,,,,
,12119,,100,,,,,,4.249237060546875,2.7183024883270264,0.7503504157066345,0.7805843353271484,,,,,
0.0002737317453800963,12120,,,,,,,,,,,,,,,,
,12149,0.23088625073432922,101,,,,,,,,,,,,,,
,12199,0.1842074990272522,101,,,,,,,,,,,,,,
,12239,,101,1.0828322172164917,21.444395065307617,5.4940185546875,1.794417381286621,14.155959129333496,,,,,,,,,
,12239,,101,,,,,,4.062036514282227,2.669102668762207,0.7211934924125671,0.6717402338981628,,,,,
0.00026380260309473707,12240,,,,,,,,,,,,,,,,
,12249,0.21826553344726562,102,,,,,,,,,,,,,,
,12299,0.24740175902843475,102,,,,,,,,,,,,,,
,12349,0.1960015594959259,102,,,,,,,,,,,,,,
,12359,,102,1.0725438594818115,22.906513214111328,7.377048969268799,1.4178112745285034,14.111652374267578,,,,,,,,,
,12359,,102,,,,,,4.27918004989624,2.7678275108337402,0.7604981660842896,0.7508541941642761,,,,,
0.0002539926450768586,12360,,,,,,,,,,,,,,,,
,12399,0.14259615540504456,103,,,,,,,,,,,,,,
,12449,0.222095787525177,103,,,,,,,,,,,,,,
,12479,,103,1.0432077646255493,20.846256256103516,5.139565944671631,1.7501107454299927,13.956579208374023,,,,,,,,,
,12479,,103,,,,,,3.9841678142547607,2.5576186180114746,0.727017879486084,0.6995313763618469,,,,,
0.0002443068109357498,12480,,,,,,,,,,,,,,,,
,12499,0.2053576409816742,104,,,,,,,,,,,,,,
,12549,0.27116626501083374,104,,,,,,,,,,,,,,
,12599,0.2269694060087204,104,,,,,,,,,,,,,,
,12599,,104,1.032422661781311,20.580415725708008,5.006646156311035,1.5064244270324707,14.06734561920166,,,,,,,,,
,12599,,104,,,,,,3.6968142986297607,2.478780746459961,0.6365740895271301,0.5814594626426697,,,,,
0.00023474997778058935,12600,,,,,,,,,,,,,,,,
,12649,0.21517065167427063,105,,,,,,,,,,,,,,
,12699,0.40961867570877075,105,,,,,,,,,,,,,,
,12719,,105,1.0231677293777466,21.9317684173584,6.335844039916992,1.5285778045654297,14.06734561920166,,,,,,,,,
,12719,,105,,,,,,3.79067325592041,2.4927048683166504,0.6992236971855164,0.5987446904182434,,,,,
0.00022532695776467476,12720,,,,,,,,,,,,,,,,
,12749,0.2612009644508362,106,,,,,,,,,,,,,,
,12799,0.22304673492908478,106,,,,,,,,,,,,,,
,12839,,106,1.0503690242767334,22.086841583251953,5.937084674835205,1.5728843212127686,14.576871871948242,,,,,,,,,
,12839,,106,,,,,,3.6764705181121826,2.4712517261505127,0.6440734267234802,0.5611454844474792,,,,,
0.00021604249566235817,12840,,,,,,,,,,,,,,,,
,12849,0.1715206503868103,107,,,,,,,,,,,,,,
,12899,0.218202605843544,107,,,,,,,,,,,,,,
,12949,0.2596977949142456,107,,,,,,,,,,,,,,
,12959,,107,1.0747102499008179,21.710235595703125,5.649091720581055,1.6836508512496948,14.37749195098877,,,,,,,,,
,12959,,107,,,,,,3.6685807704925537,2.500993490219116,0.6673884391784668,0.5001987218856812,,,,,
0.00020690126647990965,12960,,,,,,,,,,,,,,,,
,12999,0.2415298968553543,108,,,,,,,,,,,,,,
,13049,0.17715010046958923,108,,,,,,,,,,,,,,
,13079,,108,1.037700891494751,21.200708389282227,6.38015079498291,1.5285778045654297,13.291980743408203,,,,,,,,,
,13079,,108,,,,,,3.510101795196533,2.3676304817199707,0.6739064455032349,0.46856480836868286,,,,,
0.00019790787310151043,13080,,,,,,,,,,,,,,,,
,13099,0.1636725515127182,109,,,,,,,,,,,,,,
,13149,0.15202617645263672,109,,,,,,,,,,,,,,
,13199,0.23920118808746338,109,,,,,,,,,,,,,,
,13199,,109,1.0599234104156494,20.957021713256836,5.626938343048096,1.7279574871063232,13.602127075195312,,,,,,,,,
,13199,,109,,,,,,3.6358394622802734,2.532323122024536,0.6039144396781921,0.49960196018218994,,,,,
0.00018906684397156255,13200,,,,,,,,,,,,,,,,
,13249,0.14298683404922485,110,,,,,,,,,,,,,,
,13299,0.2866121828556061,110,,,,,,,,,,,,,,
,13319,,110,1.118068814277649,22.108993530273438,6.402304172515869,1.3291980028152466,14.37749195098877,,,,,,,,,
,13319,,110,,,,,,4.192678928375244,2.653942346572876,0.75355464220047,0.7851819396018982,,,,,
0.00018038263081448039,13320,,,,,,,,,,,,,,,,
,13349,0.19230753183364868,111,,,,,,,,,,,,,,
,13399,0.2458498775959015,111,,,,,,,,,,,,,,
,13439,,111,1.0566610097885132,21.643774032592773,6.71245002746582,1.4399645328521729,13.491360664367676,,,,,,,,,
,13439,,111,,,,,,3.8769187927246094,2.5552420616149902,0.7145315408706665,0.6071453094482422,,,,,
0.0001718596063931135,13440,,,,,,,,,,,,,,,,
,13449,0.2295984923839569,112,,,,,,,,,,,,,,
,13499,0.28752171993255615,112,,,,,,,,,,,,,,
,13549,0.3188254237174988,112,,,,,,,,,,,,,,
,13559,,112,1.0599241256713867,21.776695251464844,7.354896068572998,1.3291980028152466,13.09260082244873,,,,,,,,,
,13559,,112,,,,,,3.4111950397491455,2.3975749015808105,0.6364272236824036,0.3771928548812866,,,,,
0.00016350206230692882,13560,,,,,,,,,,,,,,,,
,13599,0.14174233376979828,113,,,,,,,,,,,,,,
,13649,0.15674138069152832,113,,,,,,,,,,,,,,
,13679,,113,1.0552403926849365,21.533008575439453,5.737704753875732,1.9937970638275146,13.801506042480469,,,,,,,,,
,13679,,113,,,,,,3.2462260723114014,2.240294933319092,0.6330071687698364,0.3729237914085388,,,,,
0.00015531420683106105,13680,,,,,,,,,,,,,,,,
,13699,0.20106229186058044,114,,,,,,,,,,,,,,
,13749,0.13124144077301025,114,,,,,,,,,,,,,,
,13799,0.07190323621034622,114,,,,,,,,,,,,,,
,13799,,114,1.0414756536483765,21.023483276367188,5.937084674835205,1.7722641229629517,13.314133644104004,,,,,,,,,
,13799,,114,,,,,,3.0861213207244873,2.18721079826355,0.5813230872154236,0.3175874352455139,,,,,
0.0001473001627973195,13800,,,,,,,,,,,,,,,,
,13849,0.163001149892807,115,,,,,,,,,,,,,,
,13899,0.15809299051761627,115,,,,,,,,,,,,,,
,13919,,115,1.0783628225326538,21.62162208557129,6.867523193359375,1.4178112745285034,13.336287498474121,,,,,,,,,
,13919,,115,,,,,,2.9429948329925537,2.084277868270874,0.5564486384391785,0.302268385887146,,,,,
0.0001394639655182179,13920,,,,,,,,,,,,,,,,
,13949,0.12640896439552307,116,,,,,,,,,,,,,,
,13999,0.15175549685955048,116,,,,,,,,,,,,,,
,14039,,116,1.0502115488052368,20.713336944580078,6.557376861572266,1.3070447444915771,12.84891414642334,,,,,,,,,
,14039,,116,,,,,,3.069669008255005,2.1761245727539062,0.5842406153678894,0.3093038499355316,,,,,
0.00013180956075507333,14040,,,,,,,,,,,,,,,,
,14049,0.23647385835647583,117,,,,,,,,,,,,,,
,14099,0.1454697549343109,117,,,,,,,,,,,,,,
,14149,0.17688177525997162,117,,,,,,,,,,,,,,
,14159,,117,1.056225061416626,21.4222412109375,7.665041923522949,1.151971697807312,12.605228424072266,,,,,,,,,
,14159,,117,,,,,,2.979909658432007,2.117521047592163,0.5630244016647339,0.29936420917510986,,,,,
0.0001243408027311963,14160,,,,,,,,,,,,,,,,
,14199,0.10277466475963593,118,,,,,,,,,,,,,,
,14249,0.21116356551647186,118,,,,,,,,,,,,,,
,14279,,118,1.053803563117981,20.624723434448242,6.2029242515563965,1.5064244270324707,12.915374755859375,,,,,,,,,
,14279,,118,,,,,,2.9923059940338135,2.156827688217163,0.5519386529922485,0.2835395634174347,,,,,
0.00011706145219117339,14280,,,,,,,,,,,,,,,,
,14299,0.11216859519481659,119,,,,,,,,,,,,,,
,14349,0.1796870082616806,119,,,,,,,,,,,,,,
,14399,0.1211286261677742,119,,,,,,,,,,,,,,
,14399,,119,1.0400139093399048,19.982276916503906,5.560478687286377,1.5728843212127686,12.84891414642334,,,,,,,,,
,14399,,119,,,,,,2.8793187141418457,2.078439474105835,0.5398722290992737,0.2610069513320923,,,,,
0.0001099751745072191,14400,,,,,,,,,,,,,,,,
,14449,0.22871725261211395,120,,,,,,,,,,,,,,
,14499,0.11678842455148697,120,,,,,,,,,,,,,,
,14519,,120,1.0605143308639526,20.735488891601562,6.38015079498291,1.4399645328521729,12.915374755859375,,,,,,,,,
,14519,,120,,,,,,2.983058214187622,2.171126127243042,0.5513970851898193,0.2605351209640503,,,,,
0.00010308553783355037,14520,,,,,,,,,,,,,,,,
,14549,0.17038844525814056,121,,,,,,,,,,,,,,
,14599,0.11794880777597427,121,,,,,,,,,,,,,,
,14639,,121,1.0277701616287231,20.536109924316406,6.070004463195801,1.5285778045654297,12.937527656555176,,,,,,,,,
,14639,,121,,,,,,2.8679370880126953,2.0764966011047363,0.5735874176025391,0.2178529053926468,,,,,
9.639601130971375e-05,14640,,,,,,,,,,,,,,,,
,14649,0.17478886246681213,122,,,,,,,,,,,,,,
,14699,0.2348650097846985,122,,,,,,,,,,,,,,
,14749,0.16106730699539185,122,,,,,,,,,,,,,,
,14759,,122,1.053694486618042,21.11209487915039,6.490917205810547,1.373504638671875,13.247673988342285,,,,,,,,,
,14759,,122,,,,,,2.8452377319335938,2.139772891998291,0.5019389986991882,0.20352594554424286,,,,,
8.990996331376899e-05,14760,,,,,,,,,,,,,,,,
,14799,0.12171769887208939,123,,,,,,,,,,,,,,
,14849,0.17543664574623108,123,,,,,,,,,,,,,,
,14879,,123,1.0333513021469116,21.178556442260742,6.601683616638184,1.5950376987457275,12.981834411621094,,,,,,,,,
,14879,,123,,,,,,2.894049644470215,2.1299986839294434,0.556547999382019,0.20750309526920319,,,,,
8.363065976620927e-05,14880,,,,,,,,,,,,,,,,
,14899,0.11320376396179199,124,,,,,,,,,,,,,,
,14949,0.1896531581878662,124,,,,,,,,,,,,,,
,14999,0.19223588705062866,124,,,,,,,,,,,,,,
,14999,,124,1.0353578329086304,20.51395606994629,6.1586174964904785,1.5064244270324707,12.84891414642334,,,,,,,,,
,14999,,124,,,,,,2.7532403469085693,2.0308759212493896,0.5022152662277222,0.22014914453029633,,,,,
7.756126248547202e-05,15000,,,,,,,,,,,,,,,,
,15049,0.0965205654501915,125,,,,,,,,,,,,,,
,15099,0.2675097584724426,125,,,,,,,,,,,,,,
,15119,,125,1.0790842771530151,21.00132942199707,6.845369815826416,1.4621179103851318,12.693840980529785,,,,,,,,,
,15119,,125,,,,,,2.762104034423828,2.0382041931152344,0.5257218480110168,0.19817785918712616,,,,,
7.170482759586783e-05,15120,,,,,,,,,,,,,,,,
,15149,0.17861142754554749,126,,,,,,,,,,,,,,
,15199,0.17285986244678497,126,,,,,,,,,,,,,,
,15239,,126,1.0337069034576416,20.8241024017334,6.6681437492370605,1.5507310628890991,12.605228424072266,,,,,,,,,
,15239,,126,,,,,,2.8073277473449707,2.093061923980713,0.5277554988861084,0.18651045858860016,,,,,
6.606430398873013e-05,15240,,,,,,,,,,,,,,,,
,15249,0.2222847044467926,127,,,,,,,,,,,,,,
,15299,0.15725848078727722,127,,,,,,,,,,,,,,
,15349,0.1347970962524414,127,,,,,,,,,,,,,,
,15359,,127,1.0551890134811401,20.868410110473633,6.557376861572266,1.7722641229629517,12.53876781463623,,,,,,,,,
,15359,,127,,,,,,2.8348991870880127,2.1306447982788086,0.5213133096694946,0.18294109404087067,,,,,
6.064253183755932e-05,15360,,,,,,,,,,,,,,,,
,15399,0.13509058952331543,128,,,,,,,,,,,,,,
,15449,0.14394444227218628,128,,,,,,,,,,,,,,
,15479,,128,1.042999505996704,20.8241024017334,6.734603404998779,1.7501107454299927,12.339388847351074,,,,,,,,,
,15479,,128,,,,,,2.674476385116577,2.0017130374908447,0.5152787566184998,0.15748466551303864,,,,,
5.544224116791025e-05,15480,,,,,,,,,,,,,,,,
,15499,0.17386363446712494,129,,,,,,,,,,,,,,
,15549,0.13861337304115295,129,,,,,,,,,,,,,,
,15599,0.137518972158432,129,,,,,,,,,,,,,,
,15599,,129,1.0415945053100586,20.713336944580078,6.557376861572266,1.5728843212127686,12.583074569702148,,,,,,,,,
,15599,,129,,,,,,2.6489245891571045,2.02419114112854,0.4843747913837433,0.1403585970401764,,,,,
5.046605048274165e-05,15600,,,,,,,,,,,,,,,,
,15649,0.2090775966644287,130,,,,,,,,,,,,,,
,15699,0.2519057095050812,130,,,,,,,,,,,,,,
,15719,,130,1.0520223379135132,20.75764274597168,7.155516147613525,1.3956578969955444,12.20646858215332,,,,,,,,,
,15719,,130,,,,,,2.7387824058532715,2.0692410469055176,0.5427969098091125,0.12674446403980255,,,,,
4.571646544392144e-05,15720,,,,,,,,,,,,,,,,
,15749,0.27247875928878784,131,,,,,,,,,,,,,,
,15799,0.14318940043449402,131,,,,,,,,,,,,,,
,15839,,131,1.0567439794540405,21.35578155517578,7.066903114318848,1.3956578969955444,12.893220901489258,,,,,,,,,
,15839,,131,,,,,,2.6427292823791504,2.0140321254730225,0.4911267161369324,0.13757050037384033,,,,,
4.119587761055041e-05,15840,,,,,,,,,,,,,,,,
,15849,0.07558341324329376,132,,,,,,,,,,,,,,
,15899,0.1649860143661499,132,,,,,,,,,,,,,,
,15949,0.09296388924121857,132,,,,,,,,,,,,,,
,15959,,132,1.0286309719085693,20.69118309020996,6.535223960876465,1.5950376987457275,12.560921669006348,,,,,,,,,
,15959,,132,,,,,,2.539503335952759,1.9008424282073975,0.5120299458503723,0.12663106620311737,,,,,
3.690656323474007e-05,15960,,,,,,,,,,,,,,,,
,15999,0.22923073172569275,133,,,,,,,,,,,,,,
,16049,0.10089875757694244,133,,,,,,,,,,,,,,
,16079,,133,1.0433613061904907,20.69118309020996,6.933983325958252,1.3291980028152466,12.428001403808594,,,,,,,,,
,16079,,133,,,,,,2.5762832164764404,1.9208526611328125,0.5122273564338684,0.14320334792137146,,,,,
3.2850682115451246e-05,16080,,,,,,,,,,,,,,,,
,16099,0.10380874574184418,134,,,,,,,,,,,,,,
,16149,0.22789672017097473,134,,,,,,,,,,,,,,
,16199,0.16788817942142487,134,,,,,,,,,,,,,,
,16199,,134,1.0252703428268433,20.491804122924805,6.933983325958252,1.2405848503112793,12.317234992980957,,,,,,,,,
,16199,,134,,,,,,2.7098588943481445,2.0037786960601807,0.5254230499267578,0.1806572675704956,,,,,
2.903027651097038e-05,16200,,,,,,,,,,,,,,,,
,16249,0.10252854228019714,135,,,,,,,,,,,,,,
,16299,0.10617783665657043,135,,,,,,,,,,,,,,
,16319,,135,1.0176637172698975,20.33673095703125,6.690296649932861,1.4621179103851318,12.18431568145752,,,,,,,,,
,16319,,135,,,,,,2.6414523124694824,2.00376558303833,0.5167461633682251,0.12094058841466904,,,,,
2.5447270110570797e-05,16320,,,,,,,,,,,,,,,,
,16349,0.16892310976982117,136,,,,,,,,,,,,,,
,16399,0.17068472504615784,136,,,,,,,,,,,,,,
,16439,,136,1.0272881984710693,20.602569580078125,7.066903114318848,1.3291980028152466,12.20646858215332,,,,,,,,,
,16439,,136,,,,,,2.584268093109131,1.9426852464675903,0.518785297870636,0.12279757857322693,,,,,
2.2103467065877228e-05,16440,,,,,,,,,,,,,,,,
,16449,0.09479266405105591,137,,,,,,,,,,,,,,
,16499,0.14857812225818634,137,,,,,,,,,,,,,,
,16549,0.12387895584106445,137,,,,,,,,,,,,,,
,16559,,137,1.0274931192398071,20.44749641418457,6.867523193359375,1.373504638671875,12.20646858215332,,,,,,,,,
,16559,,137,,,,,,2.5956003665924072,1.9635324478149414,0.507028341293335,0.1250395029783249,,,,,
1.9000551082421295e-05,16560,,,,,,,,,,,,,,,,
,16599,0.08647345006465912,138,,,,,,,,,,,,,,
,16649,0.08259738981723785,138,,,,,,,,,,,,,,
,16679,,138,1.031078815460205,20.624723434448242,7.155516147613525,1.4178112745285034,12.051395416259766,,,,,,,,,
,16679,,138,,,,,,2.58604097366333,1.975295066833496,0.5130814909934998,0.09766431152820587,,,,,
1.6140084571844897e-05,16680,,,,,,,,,,,,,,,,
,16699,0.17725065350532532,139,,,,,,,,,,,,,,
,16749,0.17943993210792542,139,,,,,,,,,,,,,,
,16799,0.19320876896381378,139,,,,,,,,,,,,,,
,16799,,139,1.0255675315856934,20.181657791137695,6.579530239105225,1.4178112745285034,12.18431568145752,,,,,,,,,
,16799,,139,,,,,,2.517648458480835,1.9647583961486816,0.4577542543411255,0.09513567388057709,,,,,
1.3523507865179094e-05,16800,,,,,,,,,,,,,,,,
,16849,0.08230409026145935,140,,,,,,,,,,,,,,
,16899,0.1514851450920105,140,,,,,,,,,,,,,,
,16919,,140,1.0340784788131714,20.181657791137695,6.645990371704102,1.4621179103851318,12.073549270629883,,,,,,,,,
,16919,,140,,,,,,2.4625046253204346,1.895081877708435,0.4668842852115631,0.10053849965333939,,,,,
1.1152138487593872e-05,16920,,,,,,,,,,,,,,,,
,16949,0.1674128770828247,141,,,,,,,,,,,,,,
,16999,0.11977347731590271,141,,,,,,,,,,,,,,
,17039,,141,1.0324652194976807,20.580415725708008,7.332742691040039,1.3956578969955444,11.852015495300293,,,,,,,,,
,17039,,141,,,,,,2.4835736751556396,1.8940176963806152,0.47798117995262146,0.11157485842704773,,,,,
9.027170494984476e-06,17040,,,,,,,,,,,,,,,,
,17049,0.13013184070587158,142,,,,,,,,,,,,,,
,17099,0.16710324585437775,142,,,,,,,,,,,,,,
,17149,0.09294309467077255,142,,,,,,,,,,,,,,
,17159,,142,1.030011773109436,20.20380973815918,6.734603404998779,1.4621179103851318,12.007088661193848,,,,,,,,,
,17159,,142,,,,,,2.497420072555542,1.9263845682144165,0.4540763795375824,0.11695906519889832,,,,,
7.149673872728734e-06,17160,,,,,,,,,,,,,,,,
,17199,0.10008939355611801,143,,,,,,,,,,,,,,
,17249,0.19266480207443237,143,,,,,,,,,,,,,,
,17279,,143,1.028419017791748,20.248117446899414,6.690296649932861,1.373504638671875,12.18431568145752,,,,,,,,,
,17279,,143,,,,,,2.5158095359802246,1.9437851905822754,0.4718857705593109,0.10013854503631592,,,,,
5.520593996916613e-06,17280,,,,,,,,,,,,,,,,
,17299,0.18743206560611725,144,,,,,,,,,,,,,,
,17349,0.07576277107000351,144,,,,,,,,,,,,,,
,17399,0.18097250163555145,144,,,,,,,,,,,,,,
,17399,,144,1.0289000272750854,20.580415725708008,6.978289604187012,1.4178112745285034,12.18431568145752,,,,,,,,,
,17399,,144,,,,,,2.4881515502929688,1.8957345485687256,0.493221640586853,0.09919541329145432,,,,,
4.140751158325317e-06,17400,,,,,,,,,,,,,,,,
,17449,0.1271447241306305,145,,,,,,,,,,,,,,
,17499,0.12523505091667175,145,,,,,,,,,,,,,,
,17519,,145,1.026600956916809,20.491804122924805,7.111209392547607,1.3513513803482056,12.029242515563965,,,,,,,,,
,17519,,145,,,,,,2.4399631023406982,1.8804899454116821,0.4921165108680725,0.06735672801733017,,,,,
3.010840149378084e-06,17520,,,,,,,,,,,,,,,,
,17549,0.2064599096775055,146,,,,,,,,,,,,,,
,17599,0.1922636777162552,146,,,,,,,,,,,,,,
,17639,,146,1.0280025005340576,20.536109924316406,7.066903114318848,1.4399645328521729,12.029242515563965,,,,,,,,,
,17639,,146,,,,,,2.469459295272827,1.9000083208084106,0.4591456949710846,0.11030527204275131,,,,,
2.1314299142951862e-06,17640,,,,,,,,,,,,,,,,
,17649,0.11862768977880478,147,,,,,,,,,,,,,,
,17699,0.0678875595331192,147,,,,,,,,,,,,,,
,17749,0.1910504549741745,147,,,,,,,,,,,,,,
,17759,,147,1.0266045331954956,20.469650268554688,7.066903114318848,1.4842711687088013,11.918476104736328,,,,,,,,,
,17759,,147,,,,,,2.521481990814209,1.920670986175537,0.5045713782310486,0.09623977541923523,,,,,
1.5029632626133622e-06,17760,,,,,,,,,,,,,,,,
,17799,0.10204939544200897,148,,,,,,,,,,,,,,
,17849,0.12381164729595184,148,,,,,,,,,,,,,,
,17879,,148,1.024302363395691,20.44749641418457,7.133362770080566,1.373504638671875,11.940629005432129,,,,,,,,,
,17879,,148,,,,,,2.5336859226226807,1.9371193647384644,0.48221322894096375,0.11435341835021973,,,,,
1.1257566462179877e-06,17880,,,,,,,,,,,,,,,,
,17899,0.19251084327697754,149,,,,,,,,,,,,,,
,17949,0.11021209508180618,149,,,,,,,,,,,,,,
,17999,0.22704875469207764,149,,,,,,,,,,,,,,
,17999,,149,1.0265001058578491,20.624723434448242,7.221976280212402,1.3513513803482056,12.051395416259766,,,,,,,,,
,17999,,149,,,,,,2.545384407043457,1.887000322341919,0.5385526418685913,0.11983141303062439,,,,,
,18000,,150,1.0400139093399048,19.982276916503906,5.560478687286377,1.5728843212127686,12.84891414642334,,,,,,,,,
,18000,,150,,,,,,,,,,1.182782769203186,23.643829345703125,6.224335193634033,1.8586556911468506,15.56083869934082
