lr-Adam,step,train/loss,epoch,val/loss,val/CER,val/IER,val/DER,val/SER,train/CER,train/IER,train/DER,train/SER,test/loss,test/CER,test/IER,test/DER,test/SER
1e-08,0,,,,,,,,,,,,,,,,
,49,101.81615447998047,0,,,,,,,,,,,,,,
,99,114.05709838867188,0,,,,,,,,,,,,,,
,119,,0,106.29704284667969,1291.1829833984375,0.0,1214.6876220703125,76.49534606933594,,,,,,,,,
,119,,0,,,,,,1493.310302734375,0.0,1418.5166015625,74.79370880126953,,,,,
0.00011112,120,,,,,,,,,,,,,,,,
,149,7.215277671813965,1,,,,,,,,,,,,,,
,199,3.4603347778320312,1,,,,,,,,,,,,,,
,239,,1,3.348987102508545,100.0,100.0,0.0,0.0,,,,,,,,,
,239,,1,,,,,,128.8349151611328,94.04183959960938,30.02737045288086,4.7657036781311035,,,,,
0.00022223000000000002,240,,,,,,,,,,,,,,,,
,249,3.6566944122314453,2,,,,,,,,,,,,,,
,299,3.5438363552093506,2,,,,,,,,,,,,,,
,349,3.280226230621338,2,,,,,,,,,,,,,,
,359,,2,3.2484960556030273,100.0,100.0,0.0,0.0,,,,,,,,,
,359,,2,,,,,,100.0,100.0,0.0,0.0,,,,,
0.00033334,360,,,,,,,,,,,,,,,,
,399,3.318575859069824,3,,,,,,,,,,,,,,
,449,3.2572336196899414,3,,,,,,,,,,,,,,
,479,,3,3.1356663703918457,100.0,100.0,0.0,0.0,,,,,,,,,
,479,,3,,,,,,100.0,100.0,0.0,0.0,,,,,
0.00044445,480,,,,,,,,,,,,,,,,
,499,3.1302740573883057,4,,,,,,,,,,,,,,
,549,3.0736870765686035,4,,,,,,,,,,,,,,
,599,3.125880479812622,4,,,,,,,,,,,,,,
,599,,4,3.0895869731903076,100.0,100.0,0.0,0.0,,,,,,,,,
,599,,4,,,,,,100.0,100.0,0.0,0.0,,,,,
0.00055556,600,,,,,,,,,,,,,,,,
,649,3.1337924003601074,5,,,,,,,,,,,,,,
,699,3.5402262210845947,5,,,,,,,,,,,,,,
,719,,5,3.091024398803711,100.0,100.0,0.0,0.0,,,,,,,,,
,719,,5,,,,,,100.0,100.0,0.0,0.0,,,,,
0.00066667,720,,,,,,,,,,,,,,,,
,749,3.0249414443969727,6,,,,,,,,,,,,,,
,799,3.028609275817871,6,,,,,,,,,,,,,,
,839,,6,2.956493377685547,100.0,100.0,0.0,0.0,,,,,,,,,
,839,,6,,,,,,99.99723815917969,99.99723815917969,0.0,0.0,,,,,
0.0007777799999999999,840,,,,,,,,,,,,,,,,
,849,3.013920307159424,7,,,,,,,,,,,,,,
,899,2.8682665824890137,7,,,,,,,,,,,,,,
,949,2.833461284637451,7,,,,,,,,,,,,,,
,959,,7,2.893159866333008,99.55693054199219,99.51262664794922,0.0,0.04430660232901573,,,,,,,,,
,959,,7,,,,,,99.96418762207031,99.96418762207031,0.0,0.0,,,,,
0.0008888899999999999,960,,,,,,,,,,,,,,,,
,999,3.0309529304504395,8,,,,,,,,,,,,,,
,1049,3.0248515605926514,8,,,,,,,,,,,,,,
,1079,,8,2.6175739765167236,98.6707992553711,98.58219146728516,0.0,0.08861320465803146,,,,,,,,,
,1079,,8,,,,,,99.27409362792969,99.22303009033203,0.0,0.051061950623989105,,,,,
0.001,1080,,,,,,,,,,,,,,,,
,1099,2.5955212116241455,9,,,,,,,,,,,,,,
,1149,2.7907328605651855,9,,,,,,,,,,,,,,
,1199,2.5469136238098145,9,,,,,,,,,,,,,,
,1199,,9,2.4437060356140137,91.16083526611328,90.36331176757812,0.0,0.7975188493728638,,,,,,,,,
,1199,,9,,,,,,95.93218231201172,95.58953094482422,0.0,0.3426542580127716,,,,,
0.001,1200,,,,,,,,,,,,,,,,
,1249,2.557985544204712,10,,,,,,,,,,,,,,
,1299,2.4930472373962402,10,,,,,,,,,,,,,,
,1319,,10,2.2904891967773438,92.17988586425781,91.9583511352539,0.0,0.22153301537036896,,,,,,,,,
,1319,,10,,,,,,91.15904998779297,90.4802474975586,0.0,0.6788045167922974,,,,,
0.0009999837940804057,1320,,,,,,,,,,,,,,,,
,1349,2.1774632930755615,11,,,,,,,,,,,,,,
,1399,2.2587928771972656,11,,,,,,,,,,,,,,
,1439,,11,2.11897611618042,86.77448272705078,85.57820129394531,0.0,1.1962782144546509,,,,,,,,,
,1439,,11,,,,,,88.381591796875,87.55484008789062,0.0027421300765126944,0.8240100741386414,,,,,
0.0009999351773732016,1440,,,,,,,,,,,,,,,,
,1449,2.1876652240753174,12,,,,,,,,,,,,,,
,1499,2.0893092155456543,12,,,,,,,,,,,,,,
,1549,2.1916542053222656,12,,,,,,,,,,,,,,
,1559,,12,1.9805046319961548,82.32166290283203,81.0810775756836,0.0,1.2405848503112793,,,,,,,,,
,1559,,12,,,,,,86.4798355102539,85.66068267822266,0.0013744193129241467,0.8177794814109802,,,,,
0.0009998541530330564,1560,,,,,,,,,,,,,,,,
,1599,1.9490318298339844,13,,,,,,,,,,,,,,
,1649,2.0395612716674805,13,,,,,,,,,,,,,,
,1679,,13,1.8291079998016357,75.03323364257812,71.46654510498047,0.0,3.566681385040283,,,,,,,,,
,1679,,13,,,,,,83.66654205322266,82.43675994873047,0.001374060520902276,1.2284101247787476,,,,,
0.000999740726317523,1680,,,,,,,,,,,,,,,,
,1699,2.0099215507507324,14,,,,,,,,,,,,,,
,1749,1.9542508125305176,14,,,,,,,,,,,,,,
,1799,1.8565583229064941,14,,,,,,,,,,,,,,
,1799,,14,1.683035135269165,69.87151336669922,63.31413269042969,0.04430660232901573,6.513070583343506,,,,,,,,,
,1799,,14,,,,,,75.93223571777344,71.47509002685547,0.013739661313593388,4.443406105041504,,,,,
0.0009995949045866989,1800,,,,,,,,,,,,,,,,
,1849,1.802527666091919,15,,,,,,,,,,,,,,
,1899,1.655095100402832,15,,,,,,,,,,,,,,
,1919,,15,1.5337566137313843,66.03898620605469,56.95613479614258,0.022153301164507866,9.060700416564941,,,,,,,,,
,1919,,15,,,,,,69.424560546875,60.86205291748047,0.04284016415476799,8.519664764404297,,,,,
0.000999416697302747,1920,,,,,,,,,,,,,,,,
,1949,1.6227492094039917,16,,,,,,,,,,,,,,
,1999,1.5344289541244507,16,,,,,,,,,,,,,,
,2039,,16,1.5780072212219238,65.77314758300781,58.61763381958008,0.11076650768518448,7.044749736785889,,,,,,,,,
,2039,,16,,,,,,65.1130142211914,55.19918441772461,0.09773422032594681,9.816094398498535,,,,,
0.0009992061160292826,2040,,,,,,,,,,,,,,,,
,2049,1.5348384380340576,17,,,,,,,,,,,,,,
,2099,1.313905954360962,17,,,,,,,,,,,,,,
,2149,1.323035717010498,17,,,,,,,,,,,,,,
,2159,,17,1.2371485233306885,41.93619918823242,23.460346221923828,0.5981391072273254,17.877714157104492,,,,,,,,,
,2159,,17,,,,,,53.26749038696289,36.83679962158203,0.48622143268585205,15.94447135925293,,,,,
0.0009989631744306228,2160,,,,,,,,,,,,,,,,
,2199,1.4079182147979736,18,,,,,,,,,,,,,,
,2249,1.4174919128417969,18,,,,,,,,,,,,,,
,2279,,18,1.164871096611023,37.72706985473633,17.213115692138672,1.129818320274353,19.384138107299805,,,,,,,,,
,2279,,18,,,,,,42.880985260009766,22.245975494384766,1.0468531847000122,19.58815574645996,,,,,
0.0009986878882708998,2280,,,,,,,,,,,,,,,,
,2299,1.272014856338501,19,,,,,,,,,,,,,,
,2349,1.2598776817321777,19,,,,,,,,,,,,,,
,2399,1.2747209072113037,19,,,,,,,,,,,,,,
,2399,,19,1.0973765850067139,33.14133834838867,12.272928237915039,1.5728843212127686,19.29552459716797,,,,,,,,,
,2399,,19,,,,,,38.879119873046875,17.864011764526367,1.3475275039672852,19.66758155822754,,,,,
0.0009983802754130377,2400,,,,,,,,,,,,,,,,
,2449,1.3105227947235107,20,,,,,,,,,,,,,,
,2499,1.1962823867797852,20,,,,,,,,,,,,,,
,2519,,20,1.045881986618042,32.83119201660156,12.029242515563965,1.2848914861679077,19.517057418823242,,,,,,,,,
,2519,,20,,,,,,36.5790901184082,15.521821022033691,1.555209994316101,19.502058029174805,,,,,
0.0009980403558175945,2520,,,,,,,,,,,,,,,,
,2549,1.138898491859436,21,,,,,,,,,,,,,,
,2599,1.1012482643127441,21,,,,,,,,,,,,,,
,2639,,21,1.0752538442611694,31.834293365478516,9.725298881530762,2.1488702297210693,19.960124969482422,,,,,,,,,
,2639,,21,,,,,,34.618404388427734,14.187170028686523,1.6178110837936401,18.81342124938965,,,,,
0.0009976681515414653,2640,,,,,,,,,,,,,,,,
,2649,1.18718683719635,22,,,,,,,,,,,,,,
,2699,0.9314514398574829,22,,,,,,,,,,,,,,
,2749,1.0713896751403809,22,,,,,,,,,,,,,,
,2759,,22,0.992674708366394,30.748781204223633,10.67789077758789,1.6836508512496948,18.387239456176758,,,,,,,,,
,2759,,22,,,,,,33.01921844482422,13.016183853149414,1.6901447772979736,18.312891006469727,,,,,
0.0009972636867364524,2760,,,,,,,,,,,,,,,,
,2799,0.9993553757667542,23,,,,,,,,,,,,,,
,2849,1.1942453384399414,23,,,,,,,,,,,,,,
,2879,,23,0.9304222464561462,29.220203399658203,10.722197532653809,1.4842711687088013,17.013734817504883,,,,,,,,,
,2879,,23,,,,,,31.33377456665039,12.009763717651367,1.7306525707244873,17.593358993530273,,,,,
0.0009968269876476973,2880,,,,,,,,,,,,,,,,
,2899,1.0006245374679565,24,,,,,,,,,,,,,,
,2949,1.135217308998108,24,,,,,,,,,,,,,,
,2999,1.0540926456451416,24,,,,,,,,,,,,,,
,2999,,24,0.8766254186630249,26.98272132873535,8.57332706451416,1.3956578969955444,17.013734817504883,,,,,,,,,
,2999,,24,,,,,,29.699237823486328,10.630860328674316,1.791687250137329,17.276689529418945,,,,,
0.0009963580826119777,3000,,,,,,,,,,,,,,,,
,3049,1.0064188241958618,25,,,,,,,,,,,,,,
,3099,1.0844223499298096,25,,,,,,,,,,,,,,
,3119,,25,0.9097453951835632,27.979618072509766,9.880372047424316,1.3513513803482056,16.747896194458008,,,,,,,,,
,3119,,25,,,,,,29.820281982421875,10.89059829711914,1.7778880596160889,17.151796340942383,,,,,
0.00099585700205587,3120,,,,,,,,,,,,,,,,
,3149,1.0284756422042847,26,,,,,,,,,,,,,,
,3199,1.0094985961914062,26,,,,,,,,,,,,,,
,3239,,26,0.896055281162262,26.827648162841797,7.221976280212402,2.1267168521881104,17.478954315185547,,,,,,,,,
,3239,,26,,,,,,28.07849884033203,10.051709175109863,1.8015787601470947,16.225210189819336,,,,,
0.000995323778493773,3240,,,,,,,,,,,,,,,,
,3249,0.9023607969284058,27,,,,,,,,,,,,,,
,3299,1.0768065452575684,27,,,,,,,,,,,,,,
,3349,0.9438899159431458,27,,,,,,,,,,,,,,
,3359,,27,0.8995554447174072,27.78023910522461,10.035445213317871,1.2848914861679077,16.459901809692383,,,,,,,,,
,3359,,27,,,,,,28.093830108642578,10.050216674804688,1.8848456144332886,16.158767700195312,,,,,
0.0009947584465257997,3360,,,,,,,,,,,,,,,,
,3399,0.8808502554893494,28,,,,,,,,,,,,,,
,3449,0.823674738407135,28,,,,,,,,,,,,,,
,3479,,28,0.8391945362091064,24.988924026489258,6.911829948425293,1.617190957069397,16.459901809692383,,,,,,,,,
,3479,,28,,,,,,27.122970581054688,9.543190956115723,1.8860114812850952,15.693767547607422,,,,,
0.0009941610428355315,3480,,,,,,,,,,,,,,,,
,3499,0.8362962007522583,29,,,,,,,,,,,,,,
,3549,0.7519633173942566,29,,,,,,,,,,,,,,
,3599,0.8896121382713318,29,,,,,,,,,,,,,,
,3599,,29,0.8165055513381958,24.745237350463867,7.31058931350708,1.794417381286621,15.640230178833008,,,,,,,,,
,3599,,29,,,,,,25.777925491333008,8.802016258239746,1.8306541442871094,15.145254135131836,,,,,
0.0009935316061876372,3600,,,,,,,,,,,,,,,,
,3649,0.7809233069419861,30,,,,,,,,,,,,,,
,3699,0.7086816430091858,30,,,,,,,,,,,,,,
,3719,,30,0.8417403101921082,26.18520164489746,10.124058723449707,0.9747452139854431,15.086398124694824,,,,,,,,,
,3719,,30,,,,,,24.40095329284668,8.134109497070312,1.831895112991333,14.434947967529297,,,,,
0.0009928701774253594,3720,,,,,,,,,,,,,,,,
,3749,0.8620134592056274,31,,,,,,,,,,,,,,
,3799,0.8882184028625488,31,,,,,,,,,,,,,,
,3839,,31,0.8471996188163757,25.409835815429688,5.826318264007568,2.4590163230895996,17.124502182006836,,,,,,,,,
,3839,,31,,,,,,25.855215072631836,8.896714210510254,1.8376638889312744,15.120837211608887,,,,,
0.0009921767994678623,3840,,,,,,,,,,,,,,,,
,3849,0.8088081479072571,32,,,,,,,,,,,,,,
,3899,0.8009381890296936,32,,,,,,,,,,,,,,
,3949,0.7951424717903137,32,,,,,,,,,,,,,,
,3959,,32,0.7767709493637085,24.390783309936523,7.864421844482422,1.373504638671875,15.152857780456543,,,,,,,,,
,3959,,32,,,,,,24.23688316345215,8.223793029785156,1.8466064929962158,14.166482925415039,,,,,
0.0009914515173074481,3960,,,,,,,,,,,,,,,,
,3999,0.8217086791992188,33,,,,,,,,,,,,,,
,4049,0.7877794504165649,33,,,,,,,,,,,,,,
,4079,,33,0.7865689396858215,23.216659545898438,6.2250776290893555,1.4178112745285034,15.573770523071289,,,,,,,,,
,4079,,33,,,,,,23.036930084228516,7.58750057220459,1.8382656574249268,13.611165046691895,,,,,
0.0009906943780066367,4080,,,,,,,,,,,,,,,,
,4099,0.8782654404640198,34,,,,,,,,,,,,,,
,4149,0.7997141480445862,34,,,,,,,,,,,,,,
,4199,0.830215573310852,34,,,,,,,,,,,,,,
,4199,,34,0.770574688911438,22.108993530273438,4.630039691925049,2.326096534729004,15.152857780456543,,,,,,,,,
,4199,,34,,,,,,22.07451629638672,7.205863952636719,1.8028464317321777,13.065805435180664,,,,,
0.0009899054306951123,4200,,,,,,,,,,,,,,,,
,4249,0.7402065992355347,35,,,,,,,,,,,,,,
,4299,0.7019480466842651,35,,,,,,,,,,,,,,
,4319,,35,0.7730230093002319,22.5299072265625,5.028799057006836,2.259636640548706,15.241471290588379,,,,,,,,,
,4319,,35,,,,,,21.676193237304688,6.998140811920166,1.702362060546875,12.975690841674805,,,,,
0.0009890847265665356,4320,,,,,,,,,,,,,,,,
,4349,0.9167017936706543,36,,,,,,,,,,,,,,
,4399,0.6219510436058044,36,,,,,,,,,,,,,,
,4439,,36,0.7564540505409241,22.241914749145508,7.066903114318848,1.2184315919876099,13.956579208374023,,,,,,,,,
,4439,,36,,,,,,21.425527572631836,7.153756141662598,1.7966870069503784,12.47508430480957,,,,,
0.000988232318875221,4440,,,,,,,,,,,,,,,,
,4449,0.6333551406860352,37,,,,,,,,,,,,,,
,4499,0.8100189566612244,37,,,,,,,,,,,,,,
,4549,0.7904894351959229,37,,,,,,,,,,,,,,
,4559,,37,0.8102409243583679,24.147098541259766,8.063801765441895,1.2405848503112793,14.842711448669434,,,,,,,,,
,4559,,37,,,,,,20.50577163696289,6.562671661376953,1.8471688032150269,12.095932006835938,,,,,
0.0009873482629326824,4560,,,,,,,,,,,,,,,,
,4599,0.6396666765213013,38,,,,,,,,,,,,,,
,4649,0.8319848775863647,38,,,,,,,,,,,,,,
,4679,,38,0.7663100361824036,23.659725189208984,7.089056491851807,1.5285778045654297,15.042091369628906,,,,,,,,,
,4679,,38,,,,,,20.938791275024414,6.770397186279297,1.7811775207519531,12.38721752166748,,,,,
0.0009864326161040425,4680,,,,,,,,,,,,,,,,
,4699,0.7595146298408508,39,,,,,,,,,,,,,,
,4749,0.7110269069671631,39,,,,,,,,,,,,,,
,4799,0.6971360445022583,39,,,,,,,,,,,,,,
,4799,,39,0.7496342062950134,21.3779354095459,5.073105812072754,1.5285778045654297,14.776251792907715,,,,,,,,,
,4799,,39,,,,,,19.863069534301758,6.335753440856934,1.8606961965560913,11.666620254516602,,,,,
0.0009854854378043125,4800,,,,,,,,,,,,,,,,
,4849,0.5892760753631592,40,,,,,,,,,,,,,,
,4899,0.6839812397956848,40,,,,,,,,,,,,,,
,4919,,40,0.784477949142456,22.995126724243164,5.848471641540527,1.6393442153930664,15.50731086730957,,,,,,,,,
,4919,,40,,,,,,19.869199752807617,6.493184566497803,1.9151865243911743,11.46082878112793,,,,,
0.0009845067894945344,4920,,,,,,,,,,,,,,,,
,4949,0.5734072923660278,41,,,,,,,,,,,,,,
,4999,0.7350586652755737,41,,,,,,,,,,,,,,
,5039,,41,0.7558301687240601,20.868410110473633,4.8072662353515625,1.9051839113235474,14.155959129333496,,,,,,,,,
,5039,,41,,,,,,18.90688133239746,6.34124231338501,1.7485496997833252,10.817090034484863,,,,,
0.0009834967346777949,5040,,,,,,,,,,,,,,,,
,5049,0.617371141910553,42,,,,,,,,,,,,,,
,5099,0.7233187556266785,42,,,,,,,,,,,,,,
,5149,0.7295318245887756,42,,,,,,,,,,,,,,
,5159,,42,0.8117454051971436,22.751440048217773,5.272485733032227,2.1045634746551514,15.374390602111816,,,,,,,,,
,5159,,42,,,,,,18.645092010498047,6.134446620941162,1.820004940032959,10.690640449523926,,,,,
0.0009824553388951033,5160,,,,,,,,,,,,,,,,
,5199,0.6389304399490356,43,,,,,,,,,,,,,,
,5249,0.6199995279312134,43,,,,,,,,,,,,,,
,5279,,43,0.7940972447395325,22.264066696166992,5.538325309753418,1.9051839113235474,14.820558547973633,,,,,,,,,
,5279,,43,,,,,,18.882734298706055,6.466068267822266,1.7814677953720093,10.635197639465332,,,,,
0.0009813826697211397,5280,,,,,,,,,,,,,,,,
,5299,0.690752387046814,44,,,,,,,,,,,,,,
,5349,0.6795421838760376,44,,,,,,,,,,,,,,
,5399,0.8421489596366882,44,,,,,,,,,,,,,,
,5399,,44,0.8354930281639099,21.953920364379883,5.804164886474609,1.7501107454299927,14.399645805358887,,,,,,,,,
,5399,,44,,,,,,17.82076072692871,5.86040735244751,1.8350770473480225,10.125275611877441,,,,,
0.0009802787967598697,5400,,,,,,,,,,,,,,,,
,5449,0.606813907623291,45,,,,,,,,,,,,,,
,5499,0.7211600542068481,45,,,,,,,,,,,,,,
,5519,,45,0.7544839978218079,21.178556442260742,5.516171932220459,1.7058041095733643,13.956579208374023,,,,,,,,,
,5519,,45,,,,,,17.72211265563965,6.089907169342041,1.740761637687683,9.891444206237793,,,,,
0.0009791437916400276,5520,,,,,,,,,,,,,,,,
,5549,0.5995461940765381,46,,,,,,,,,,,,,,
,5599,0.6241419315338135,46,,,,,,,,,,,,,,
,5639,,46,0.7752006649971008,21.178556442260742,4.718653202056885,2.1267168521881104,14.333185195922852,,,,,,,,,
,5639,,46,,,,,,16.580989837646484,5.5789079666137695,1.6496919393539429,9.352389335632324,,,,,
0.0009779777280104695,5640,,,,,,,,,,,,,,,,
,5649,0.618888258934021,47,,,,,,,,,,,,,,
,5699,0.553504467010498,47,,,,,,,,,,,,,,
,5749,0.5259795188903809,47,,,,,,,,,,,,,,
,5759,,47,0.7672892808914185,21.55516242980957,5.649091720581055,1.5285778045654297,14.37749195098877,,,,,,,,,
,5759,,47,,,,,,16.743175506591797,5.593886375427246,1.7537590265274048,9.395530700683594,,,,,
0.000976780681535393,5760,,,,,,,,,,,,,,,,
,5799,0.6255135536193848,48,,,,,,,,,,,,,,
,5849,0.5580804347991943,48,,,,,,,,,,,,,,
,5879,,48,0.8334968686103821,23.57111167907715,6.468763828277588,1.6614975929260254,15.440850257873535,,,,,,,,,
,5879,,48,,,,,,18.15069007873535,6.108444690704346,1.8289580345153809,10.213286399841309,,,,,
0.0009755527298894285,5880,,,,,,,,,,,,,,,,
,5899,0.6163153648376465,49,,,,,,,,,,,,,,
,5949,0.5595424175262451,49,,,,,,,,,,,,,,
,5999,0.4633096158504486,49,,,,,,,,,,,,,,
,5999,,49,0.80271977186203,21.62162208557129,5.804164886474609,1.3070447444915771,14.510412216186523,,,,,,,,,
,5999,,49,,,,,,16.800010681152344,5.8294477462768555,1.8001489639282227,9.170413970947266,,,,,
0.0009742939527525984,6000,,,,,,,,,,,,,,,,
,6049,0.4946889877319336,50,,,,,,,,,,,,,,
,6099,0.49971726536750793,50,,,,,,,,,,,,,,
,6119,,50,0.8234388828277588,21.289321899414062,4.231280326843262,2.3925564289093018,14.665485382080078,,,,,,,,,
,6119,,50,,,,,,15.291481971740723,5.2936811447143555,1.73157799243927,8.266222953796387,,,,,
0.0009730044318051475,6120,,,,,,,,,,,,,,,,
,6149,0.5029823780059814,51,,,,,,,,,,,,,,
,6199,0.5206631422042847,51,,,,,,,,,,,,,,
,6239,,51,0.7786476612091064,21.466548919677734,6.025697708129883,1.617190957069397,13.823659896850586,,,,,,,,,
,6239,,51,,,,,,14.803277015686035,5.162689208984375,1.6756097078323364,7.964978218078613,,,,,
0.0009716842507222418,6240,,,,,,,,,,,,,,,,
,6249,0.4798227846622467,52,,,,,,,,,,,,,,
,6299,0.46113261580467224,52,,,,,,,,,,,,,,
,6349,0.6878023147583008,52,,,,,,,,,,,,,,
,6359,,52,0.7960739135742188,20.912715911865234,4.696499824523926,1.9716438055038452,14.244572639465332,,,,,,,,,
,6359,,52,,,,,,14.209318161010742,5.028800964355469,1.5960737466812134,7.58444356918335,,,,,
0.0009703334951685404,6360,,,,,,,,,,,,,,,,
,6399,0.4816468358039856,53,,,,,,,,,,,,,,
,6449,0.34505343437194824,53,,,,,,,,,,,,,,
,6479,,53,0.7957150936126709,20.292423248291016,3.8768277168273926,2.5033230781555176,13.912272453308105,,,,,,,,,
,6479,,53,,,,,,14.111579895019531,4.9433274269104,1.6436392068862915,7.524613380432129,,,,,
0.0009689522527926349,6480,,,,,,,,,,,,,,,,
,6499,0.4608510732650757,54,,,,,,,,,,,,,,
,6549,0.6519717574119568,54,,,,,,,,,,,,,,
,6599,0.5680186748504639,54,,,,,,,,,,,,,,
,6599,,54,0.8006685376167297,20.779796600341797,4.7851128578186035,1.7722641229629517,14.222418785095215,,,,,,,,,
,6599,,54,,,,,,13.886672019958496,5.1366376876831055,1.6773536205291748,7.072680950164795,,,,,
0.0009675406132213641,6600,,,,,,,,,,,,,,,,
,6649,0.510333776473999,55,,,,,,,,,,,,,,
,6699,0.4801166355609894,55,,,,,,,,,,,,,,
,6719,,55,0.8303316831588745,22.729286193847656,6.2029242515563965,1.6836508512496948,14.842711448669434,,,,,,,,,
,6719,,55,,,,,,14.14022159576416,5.151257038116455,1.6759086847305298,7.313055992126465,,,,,
0.0009660986680539965,6720,,,,,,,,,,,,,,,,
,6749,0.5121257901191711,56,,,,,,,,,,,,,,
,6799,0.49990659952163696,56,,,,,,,,,,,,,,
,6839,,56,0.8703811168670654,20.93486976623535,3.322995185852051,2.769162654876709,14.842711448669434,,,,,,,,,
,6839,,56,,,,,,13.37605094909668,4.933167934417725,1.6260162591934204,6.816866397857666,,,,,
0.0009646265108562877,6840,,,,,,,,,,,,,,,,
,6849,0.4676402807235718,57,,,,,,,,,,,,,,
,6899,0.40642476081848145,57,,,,,,,,,,,,,,
,6949,0.4856664538383484,57,,,,,,,,,,,,,,
,6959,,57,0.8582770228385925,21.31147575378418,4.696499824523926,2.171023368835449,14.443952560424805,,,,,,,,,
,6959,,57,,,,,,12.838665962219238,4.731339931488037,1.6335862874984741,6.473740100860596,,,,,
0.0009631242371544087,6960,,,,,,,,,,,,,,,,
,6999,0.45870906114578247,58,,,,,,,,,,,,,,
,7049,0.5830317139625549,58,,,,,,,,,,,,,,
,7079,,58,0.8574883937835693,20.957021713256836,4.27558708190918,1.9494904279708862,14.731945037841797,,,,,,,,,
,7079,,58,,,,,,12.870454788208008,4.7445759773254395,1.4831968545913696,6.642682075500488,,,,,
0.0009615919444287472,7080,,,,,,,,,,,,,,,,
,7099,0.4892158508300781,59,,,,,,,,,,,,,,
,7149,0.43965965509414673,59,,,,,,,,,,,,,,
,7199,0.5903422832489014,59,,,,,,,,,,,,,,
,7199,,59,0.8505290746688843,21.023483276367188,4.209126949310303,1.9273371696472168,14.887018203735352,,,,,,,,,
,7199,,59,,,,,,12.952862739562988,4.786569118499756,1.6101776361465454,6.556115627288818,,,,,
0.0009600297321075821,7200,,,,,,,,,,,,,,,,
,7249,0.4358185827732086,60,,,,,,,,,,,,,,
,7299,0.4410645365715027,60,,,,,,,,,,,,,,
,7319,,60,0.8653742671012878,21.289321899414062,4.297740459442139,2.1267168521881104,14.86486530303955,,,,,,,,,
,7319,,60,,,,,,12.9308443069458,4.865438938140869,1.6503061056137085,6.415099620819092,,,,,
0.0009584377015606324,7320,,,,,,,,,,,,,,,,
,7349,0.531906008720398,61,,,,,,,,,,,,,,
,7399,0.40195751190185547,61,,,,,,,,,,,,,,
,7439,,61,0.841710090637207,20.779796600341797,5.139565944671631,1.8165706396102905,13.823659896850586,,,,,,,,,
,7439,,61,,,,,,11.628739356994629,4.48244047164917,1.4826745986938477,5.663624286651611,,,,,
0.0009568159560924786,7440,,,,,,,,,,,,,,,,
,7449,0.3618052005767822,62,,,,,,,,,,,,,,
,7499,0.5553134679794312,62,,,,,,,,,,,,,,
,7549,0.4589892029762268,62,,,,,,,,,,,,,,
,7559,,62,0.8505839705467224,21.06778907775879,5.050952434539795,2.0602569580078125,13.956579208374023,,,,,,,,,
,7559,,62,,,,,,11.901651382446289,4.480136394500732,1.5483835935592651,5.87313175201416,,,,,
0.0009551646009358603,7560,,,,,,,,,,,,,,,,
,7599,0.42600584030151367,63,,,,,,,,,,,,,,
,7649,0.5984171628952026,63,,,,,,,,,,,,,,
,7679,,63,0.8784377574920654,21.510854721069336,5.560478687286377,1.5950376987457275,14.355339050292969,,,,,,,,,
,7679,,63,,,,,,11.985984802246094,4.626653671264648,1.5160084962844849,5.84332275390625,,,,,
0.0009534837432448469,7680,,,,,,,,,,,,,,,,
,7699,0.4119213819503784,64,,,,,,,,,,,,,,
,7749,0.4204626679420471,64,,,,,,,,,,,,,,
,7799,0.580292820930481,64,,,,,,,,,,,,,,
,7799,,64,0.8118720054626465,19.760744094848633,4.142667293548584,1.617190957069397,14.000885963439941,,,,,,,,,
,7799,,64,,,,,,10.976061820983887,4.322030544281006,1.4750113487243652,5.179020404815674,,,,,
0.0009517734920878854,7800,,,,,,,,,,,,,,,,
,7849,0.40633219480514526,65,,,,,,,,,,,,,,
,7899,0.4827221632003784,65,,,,,,,,,,,,,,
,7919,,65,0.9008141160011292,21.31147575378418,4.89587926864624,1.9051839113235474,14.510412216186523,,,,,,,,,
,7919,,65,,,,,,10.471420288085938,4.249112606048584,1.4282962083816528,4.79401159286499,,,,,
0.0009500339584407223,7920,,,,,,,,,,,,,,,,
,7949,0.3982726037502289,66,,,,,,,,,,,,,,
,7999,0.3762171268463135,66,,,,,,,,,,,,,,
,8039,,66,0.8521833419799805,20.713336944580078,4.076207160949707,2.0159504413604736,14.62117862701416,,,,,,,,,
,8039,,66,,,,,,10.666390419006348,4.228989601135254,1.3949313163757324,5.042469501495361,,,,,
0.0009482652551792033,8040,,,,,,,,,,,,,,,,
,8049,0.5064104795455933,67,,,,,,,,,,,,,,
,8099,0.43460220098495483,67,,,,,,,,,,,,,,
,8149,0.4841774106025696,67,,,,,,,,,,,,,,
,8159,,67,0.8885277509689331,20.713336944580078,4.8737263679504395,2.0159504413604736,13.823659896850586,,,,,,,,,
,8159,,67,,,,,,11.649750709533691,4.734989166259766,1.4220094680786133,5.492752552032471,,,,,
0.0009464674970719485,8160,,,,,,,,,,,,,,,,
,8199,0.5494643449783325,68,,,,,,,,,,,,,,
,8249,0.4291110038757324,68,,,,,,,,,,,,,,
,8279,,68,0.9503554701805115,22.17545509338379,5.383252143859863,2.1267168521881104,14.665485382080078,,,,,,,,,
,8279,,68,,,,,,10.736839294433594,4.330860614776611,1.4780906438827515,4.927887916564941,,,,,
0.000944640800772905,8280,,,,,,,,,,,,,,,,
,8299,0.3126513361930847,69,,,,,,,,,,,,,,
,8349,0.3107900023460388,69,,,,,,,,,,,,,,
,8399,0.3275483548641205,69,,,,,,,,,,,,,,
,8399,,69,0.8717644214630127,21.11209487915039,4.918032646179199,1.7722641229629517,14.421798706054688,,,,,,,,,
,8399,,69,,,,,,10.95325756072998,4.404935359954834,1.4866312742233276,5.0616912841796875,,,,,
0.0009427852848137776,8400,,,,,,,,,,,,,,,,
,8449,0.41792935132980347,70,,,,,,,,,,,,,,
,8499,0.5349075794219971,70,,,,,,,,,,,,,,
,8519,,70,0.9358339309692383,22.507753372192383,6.1364641189575195,1.3291980028152466,15.042091369628906,,,,,,,,,
,8519,,70,,,,,,11.159188270568848,4.473045825958252,1.4910153150558472,5.195127487182617,,,,,
0.0009409010695963385,8520,,,,,,,,,,,,,,,,
,8549,0.4430624544620514,71,,,,,,,,,,,,,,
,8599,0.4475172758102417,71,,,,,,,,,,,,,,
,8639,,71,0.918353259563446,21.510854721069336,5.78201150894165,1.373504638671875,14.355339050292969,,,,,,,,,
,8639,,71,,,,,,10.347763061523438,4.420830249786377,1.370182752609253,4.5567498207092285,,,,,
0.0009389882773846124,8640,,,,,,,,,,,,,,,,
,8649,0.42527562379837036,72,,,,,,,,,,,,,,
,8699,0.3408246636390686,72,,,,,,,,,,,,,,
,8749,0.42396676540374756,72,,,,,,,,,,,,,,
,8759,,72,0.9115159511566162,21.3779354095459,4.718653202056885,1.860877275466919,14.798404693603516,,,,,,,,,
,8759,,72,,,,,,9.737272262573242,4.098169326782227,1.3184459209442139,4.320657253265381,,,,,
0.0009370470322969451,8760,,,,,,,,,,,,,,,,
,8799,0.43816909193992615,73,,,,,,,,,,,,,,
,8849,0.4253575801849365,73,,,,,,,,,,,,,,
,8879,,73,0.9142231345176697,21.222862243652344,4.918032646179199,2.0824103355407715,14.222418785095215,,,,,,,,,
,8879,,73,,,,,,9.885627746582031,4.224886417388916,1.3834917545318604,4.277249336242676,,,,,
0.0009350774602979483,8880,,,,,,,,,,,,,,,,
,8899,0.3812907934188843,74,,,,,,,,,,,,,,
,8949,0.444731205701828,74,,,,,,,,,,,,,,
,8999,0.3139118552207947,74,,,,,,,,,,,,,,
,8999,,74,0.9398547410964966,20.93486976623535,4.962339401245117,1.5950376987457275,14.37749195098877,,,,,,,,,
,8999,,74,,,,,,9.258902549743652,4.042348384857178,1.2443283796310425,3.972226142883301,,,,,
0.0009330796891903266,9000,,,,,,,,,,,,,,,,
,9049,0.4473234713077545,75,,,,,,,,,,,,,,
,9099,0.3019126057624817,75,,,,,,,,,,,,,,
,9119,,75,0.9089954495429993,20.75764274597168,5.228178977966309,1.5285778045654297,14.000885963439941,,,,,,,,,
,9119,,75,,,,,,9.598007202148438,4.090500354766846,1.3588874340057373,4.148619651794434,,,,,
0.000931053848606584,9120,,,,,,,,,,,,,,,,
,9149,0.1812637597322464,76,,,,,,,,,,,,,,
,9199,0.29903340339660645,76,,,,,,,,,,,,,,
,9239,,76,0.9148949384689331,21.599468231201172,6.734603404998779,1.129818320274353,13.73504638671875,,,,,,,,,
,9239,,76,,,,,,8.788578987121582,3.899158239364624,1.259833812713623,3.629586935043335,,,,,
0.0009290000700006131,9240,,,,,,,,,,,,,,,,
,9249,0.2899036407470703,77,,,,,,,,,,,,,,
,9299,0.2971959710121155,77,,,,,,,,,,,,,,
,9349,0.41599082946777344,77,,,,,,,,,,,,,,
,9359,,77,0.903421938419342,20.44749641418457,4.474967002868652,1.8165706396102905,14.155959129333496,,,,,,,,,
,9359,,77,,,,,,8.754773139953613,3.83072829246521,1.232041358947754,3.6920034885406494,,,,,
0.0009269184866391644,9360,,,,,,,,,,,,,,,,
,9399,0.32044079899787903,78,,,,,,,,,,,,,,
,9449,0.2647651433944702,78,,,,,,,,,,,,,,
,9479,,78,0.9548582434654236,21.156402587890625,5.073105812072754,1.6614975929260254,14.421798706054688,,,,,,,,,
,9479,,78,,,,,,8.858769416809082,3.8661463260650635,1.2409172058105469,3.75170636177063,,,,,
0.0009248092335931992,9480,,,,,,,,,,,,,,,,
,9499,0.29625946283340454,79,,,,,,,,,,,,,,
,9549,0.3264363408088684,79,,,,,,,,,,,,,,
,9599,0.39415085315704346,79,,,,,,,,,,,,,,
,9599,,79,0.9590548872947693,21.798847198486328,6.114311218261719,1.3956578969955444,14.28887939453125,,,,,,,,,
,9599,,79,,,,,,8.465426445007324,3.7416553497314453,1.278810977935791,3.444960355758667,,,,,
0.000922672447729125,9600,,,,,,,,,,,,,,,,
,9649,0.35357189178466797,80,,,,,,,,,,,,,,
,9699,0.41127872467041016,80,,,,,,,,,,,,,,
,9719,,80,1.017488956451416,21.200708389282227,3.610988140106201,2.171023368835449,15.418697357177734,,,,,,,,,
,9719,,80,,,,,,8.179390907287598,3.707017660140991,1.161798357963562,3.310574531555176,,,,,
0.0009205082676999142,9720,,,,,,,,,,,,,,,,
,9749,0.34867966175079346,81,,,,,,,,,,,,,,
,9799,0.34872639179229736,81,,,,,,,,,,,,,,
,9839,,81,0.9672444462776184,20.20380973815918,3.65529465675354,2.4147098064422607,14.133806228637695,,,,,,,,,
,9839,,81,,,,,,8.399906158447266,3.7785141468048096,1.2347546815872192,3.3866376876831055,,,,,
0.0009183168339361076,9840,,,,,,,,,,,,,,,,
,9849,0.2907823920249939,82,,,,,,,,,,,,,,
,9899,0.47796398401260376,82,,,,,,,,,,,,,,
,9949,0.25775572657585144,82,,,,,,,,,,,,,,
,9959,,82,1.0194885730743408,21.577314376831055,4.740806579589844,1.9273371696472168,14.909171104431152,,,,,,,,,
,9959,,82,,,,,,7.907168388366699,3.548475742340088,1.1727547645568848,3.1859378814697266,,,,,
0.000916098288636702,9960,,,,,,,,,,,,,,,,
,9999,0.3662901520729065,83,,,,,,,,,,,,,,
,10049,0.2735404074192047,83,,,,,,,,,,,,,,
,10079,,83,0.9569658041000366,21.045635223388672,5.471865177154541,1.5728843212127686,14.000885963439941,,,,,,,,,
,10079,,83,,,,,,8.108516693115234,3.6057724952697754,1.2409030199050903,3.2618415355682373,,,,,
0.0009138527757599222,10080,,,,,,,,,,,,,,,,
,10099,0.23873478174209595,84,,,,,,,,,,,,,,
,10149,0.37231016159057617,84,,,,,,,,,,,,,,
,10199,0.45172247290611267,84,,,,,,,,,,,,,,
,10199,,84,0.9836620092391968,21.55516242980957,4.585733413696289,2.1045634746551514,14.86486530303955,,,,,,,,,
,10199,,84,,,,,,7.844671249389648,3.5633888244628906,1.1420414447784424,3.1392412185668945,,,,,
0.0009115804410138808,10200,,,,,,,,,,,,,,,,
,10249,0.27887630462646484,85,,,,,,,,,,,,,,
,10299,0.32122868299484253,85,,,,,,,,,,,,,,
,10319,,85,0.9719329476356506,21.35578155517578,5.737704753875732,1.4399645328521729,14.178112983703613,,,,,,,,,
,10319,,85,,,,,,8.421675682067871,3.837045907974243,1.1812649965286255,3.403364896774292,,,,,
0.0009092814318471236,10320,,,,,,,,,,,,,,,,
,10349,0.3380962610244751,86,,,,,,,,,,,,,,
,10399,0.2748222351074219,86,,,,,,,,,,,,,,
,10439,,86,0.979649543762207,21.62162208557129,4.031900882720947,2.193176746368408,15.396544456481934,,,,,,,,,
,10439,,86,,,,,,8.05294418334961,3.7343997955322266,1.1751607656478882,3.143383264541626,,,,,
0.0009069558974390601,10440,,,,,,,,,,,,,,,,
,10449,0.3814068138599396,87,,,,,,,,,,,,,,
,10499,0.23721414804458618,87,,,,,,,,,,,,,,
,10549,0.32205116748809814,87,,,,,,,,,,,,,,
,10559,,87,1.0165215730667114,21.9317684173584,5.228178977966309,1.617190957069397,15.086398124694824,,,,,,,,,
,10559,,87,,,,,,8.45016098022461,3.786719560623169,1.2585638761520386,3.404877185821533,,,,,
0.0009046039886902858,10560,,,,,,,,,,,,,,,,
,10599,0.31416070461273193,88,,,,,,,,,,,,,,
,10649,0.2948431074619293,88,,,,,,,,,,,,,,
,10679,,88,0.9621634483337402,21.200708389282227,4.541426658630371,1.8830305337905884,14.776251792907715,,,,,,,,,
,10679,,88,,,,,,7.785314559936523,3.539030075073242,1.0932804346084595,3.1530041694641113,,,,,
0.0009022258582127889,10680,,,,,,,,,,,,,,,,
,10699,0.22902727127075195,89,,,,,,,,,,,,,,
,10749,0.3100441098213196,89,,,,,,,,,,,,,,
,10799,0.3265365958213806,89,,,,,,,,,,,,,,
,10799,,89,1.0152392387390137,22.795745849609375,6.09215784072876,1.5950376987457275,15.108551025390625,,,,,,,,,
,10799,,89,,,,,,7.45036506652832,3.4286816120147705,1.064927577972412,2.956756353378296,,,,,
0.0008998216603200484,10800,,,,,,,,,,,,,,,,
,10849,0.28831326961517334,90,,,,,,,,,,,,,,
,10899,0.30982547998428345,90,,,,,,,,,,,,,,
,10919,,90,0.9566112756729126,20.779796600341797,5.759858131408691,1.5507310628890991,13.469206809997559,,,,,,,,,
,10919,,90,,,,,,7.605478763580322,3.591437816619873,1.0737146139144897,2.94032621383667,,,,,
0.0008973915510170198,10920,,,,,,,,,,,,,,,,
,10949,0.26817500591278076,91,,,,,,,,,,,,,,
,10999,0.25516438484191895,91,,,,,,,,,,,,,,
,11039,,91,0.9848563075065613,21.200708389282227,5.361098766326904,1.7058041095733643,14.133806228637695,,,,,,,,,
,11039,,91,,,,,,7.267190456390381,3.440187692642212,1.11106538772583,2.715937614440918,,,,,
0.0008949356879900135,11040,,,,,,,,,,,,,,,,
,11049,0.28068608045578003,92,,,,,,,,,,,,,,
,11099,0.33728137612342834,92,,,,,,,,,,,,,,
,11149,0.3877307176589966,92,,,,,,,,,,,,,,
,11159,,92,0.9839922189712524,20.44749641418457,4.364200115203857,2.0381035804748535,14.04519271850586,,,,,,,,,
,11159,,92,,,,,,6.900871276855469,3.412579298019409,1.0572251081466675,2.4310669898986816,,,,,
0.0008924542305964618,11160,,,,,,,,,,,,,,,,
,11199,0.323225736618042,93,,,,,,,,,,,,,,
,11249,0.3657395541667938,93,,,,,,,,,,,,,,
,11279,,93,0.9585230350494385,20.624723434448242,4.962339401245117,1.5728843212127686,14.089499473571777,,,,,,,,,
,11279,,93,,,,,,6.98643684387207,3.3756086826324463,1.118325114250183,2.4925031661987305,,,,,
0.000889947339854579,11280,,,,,,,,,,,,,,,,
,11299,0.3772798776626587,94,,,,,,,,,,,,,,
,11349,0.2229599505662918,94,,,,,,,,,,,,,,
,11399,0.2722100019454956,94,,,,,,,,,,,,,,
,11399,,94,0.9672079086303711,20.558263778686523,4.452813625335693,2.1045634746551514,14.000885963439941,,,,,,,,,
,11399,,94,,,,,,6.708948135375977,3.358610153198242,1.0133737325668335,2.3369641304016113,,,,,
0.0008874151784329129,11400,,,,,,,,,,,,,,,,
,11449,0.24393869936466217,95,,,,,,,,,,,,,,
,11499,0.28520843386650085,95,,,,,,,,,,,,,,
,11519,,95,0.9759114384651184,21.444395065307617,4.56358003616333,1.860877275466919,15.019937515258789,,,,,,,,,
,11519,,95,,,,,,7.315357685089111,3.4894144535064697,1.1778497695922852,2.6480932235717773,,,,,
0.0008848579106397893,11520,,,,,,,,,,,,,,,,
,11549,0.2598099708557129,96,,,,,,,,,,,,,,
,11599,0.35042324662208557,96,,,,,,,,,,,,,,
,11639,,96,0.953865647315979,20.64687728881836,3.633141279220581,2.259636640548706,14.754097938537598,,,,,,,,,
,11639,,96,,,,,,7.517580986022949,3.4955928325653076,1.1487478017807007,2.8732402324676514,,,,,
0.0008822757024126507,11640,,,,,,,,,,,,,,,,
,11649,0.2409454882144928,97,,,,,,,,,,,,,,
,11699,0.21159745752811432,97,,,,,,,,,,,,,,
,11749,0.381339967250824,97,,,,,,,,,,,,,,
,11759,,97,1.0504498481750488,22.46344757080078,4.098360538482666,2.724855899810791,15.640230178833008,,,,,,,,,
,11759,,97,,,,,,7.138328552246094,3.4843974113464355,1.0296063423156738,2.6243245601654053,,,,,
0.0008796687213072884,11760,,,,,,,,,,,,,,,,
,11799,0.3441475033760071,98,,,,,,,,,,,,,,
,11849,0.20611527562141418,98,,,,,,,,,,,,,,
,11879,,98,0.9826223254203796,21.089942932128906,5.516171932220459,1.4399645328521729,14.133806228637695,,,,,,,,,
,11879,,98,,,,,,7.455090522766113,3.5666143894195557,1.1251410245895386,2.7633352279663086,,,,,
0.0008770371364869704,11880,,,,,,,,,,,,,,,,
,11899,0.40740498900413513,99,,,,,,,,,,,,,,
,11949,0.2491220235824585,99,,,,,,,,,,,,,,
,11999,0.25892937183380127,99,,,,,,,,,,,,,,
,11999,,99,0.9676809310913086,20.669029235839844,5.826318264007568,1.617190957069397,13.225520133972168,,,,,,,,,
,11999,,99,,,,,,6.498527526855469,3.276094436645508,0.9714081287384033,2.2510249614715576,,,,,
0.0008743811187114645,12000,,,,,,,,,,,,,,,,
,12049,0.2713221311569214,100,,,,,,,,,,,,,,
,12099,0.6913248300552368,100,,,,,,,,,,,,,,
,12119,,100,1.104614019393921,25.232608795166016,7.399202346801758,1.4399645328521729,16.393442153930664,,,,,,,,,
,12119,,100,,,,,,10.75102710723877,5.044543266296387,1.2963013648986816,4.410182952880859,,,,,
0.0008717008403259579,12120,,,,,,,,,,,,,,,,
,12149,0.5363450050354004,101,,,,,,,,,,,,,,
,12199,0.34581083059310913,101,,,,,,,,,,,,,,
,12239,,101,0.9417790770530701,21.821001052856445,6.623836994171143,1.2848914861679077,13.912272453308105,,,,,,,,,
,12239,,101,,,,,,10.596866607666016,4.7509379386901855,1.3611539602279663,4.484775066375732,,,,,
0.0008689964752498742,12240,,,,,,,,,,,,,,,,
,12249,0.41756922006607056,102,,,,,,,,,,,,,,
,12299,0.23993614315986633,102,,,,,,,,,,,,,,
,12349,0.2038491815328598,102,,,,,,,,,,,,,,
,12359,,102,0.9564803242683411,20.8241024017334,5.626938343048096,1.3513513803482056,13.845812797546387,,,,,,,,,
,12359,,102,,,,,,6.7645087242126465,3.3514504432678223,1.0254234075546265,2.387634754180908,,,,,
0.0008662681989655874,12360,,,,,,,,,,,,,,,,
,12399,0.2755887508392334,103,,,,,,,,,,,,,,
,12449,0.24540498852729797,103,,,,,,,,,,,,,,
,12479,,103,0.9696871638298035,20.13735008239746,5.20602560043335,1.5728843212127686,13.358440399169922,,,,,,,,,
,12479,,103,,,,,,6.598017692565918,3.4508461952209473,1.0393948554992676,2.1077768802642822,,,,,
0.000863516188507036,12480,,,,,,,,,,,,,,,,
,12499,0.2038196623325348,104,,,,,,,,,,,,,,
,12549,0.23112744092941284,104,,,,,,,,,,,,,,
,12599,0.16261407732963562,104,,,,,,,,,,,,,,
,12599,,104,0.9664588570594788,19.760744094848633,3.9654407501220703,1.860877275466919,13.934426307678223,,,,,,,,,
,12599,,104,,,,,,5.769601345062256,2.9811902046203613,0.9322243928909302,1.856186866760254,,,,,
0.0008607406224482349,12600,,,,,,,,,,,,,,,,
,12649,0.30423325300216675,105,,,,,,,,,,,,,,
,12699,0.25225985050201416,105,,,,,,,,,,,,,,
,12719,,105,1.0026981830596924,20.602569580078125,5.78201150894165,1.4399645328521729,13.380593299865723,,,,,,,,,
,12719,,105,,,,,,5.426335334777832,2.8899190425872803,0.8651875257492065,1.6712287664413452,,,,,
0.0008579416808916881,12720,,,,,,,,,,,,,,,,
,12749,0.2095302790403366,106,,,,,,,,,,,,,,
,12799,0.3035115599632263,106,,,,,,,,,,,,,,
,12839,,106,1.0234663486480713,20.469650268554688,4.674346446990967,1.4621179103851318,14.333185195922852,,,,,,,,,
,12839,,106,,,,,,5.456669807434082,3.0210981369018555,0.8480516672134399,1.5875197649002075,,,,,
0.000855119545456702,12840,,,,,,,,,,,,,,,,
,12849,0.21841849386692047,107,,,,,,,,,,,,,,
,12899,0.21503287553787231,107,,,,,,,,,,,,,,
,12949,0.3440069556236267,107,,,,,,,,,,,,,,
,12959,,107,0.9832953214645386,20.51395606994629,5.737704753875732,1.2405848503112793,13.535666465759277,,,,,,,,,
,12959,,107,,,,,,5.492705821990967,3.0305533409118652,0.8932012319564819,1.5689512491226196,,,,,
0.000852274399267601,12960,,,,,,,,,,,,,,,,
,12999,0.1846248209476471,108,,,,,,,,,,,,,,
,13049,0.24896162748336792,108,,,,,,,,,,,,,,
,13079,,108,1.044826626777649,20.93486976623535,5.449711799621582,1.4399645328521729,14.04519271850586,,,,,,,,,
,13079,,108,,,,,,5.219315528869629,2.8893868923187256,0.8357503414154053,1.4941786527633667,,,,,
0.0008494064269418436,13080,,,,,,,,,,,,,,,,
,13099,0.21332581341266632,109,,,,,,,,,,,,,,
,13149,0.15375842154026031,109,,,,,,,,,,,,,,
,13199,0.23191282153129578,109,,,,,,,,,,,,,,
,13199,,109,0.9884940385818481,20.159503936767578,4.342046737670898,1.7722641229629517,14.04519271850586,,,,,,,,,
,13199,,109,,,,,,5.342964172363281,2.8699822425842285,0.865681529045105,1.6073004007339478,,,,,
0.0008465158145780445,13200,,,,,,,,,,,,,,,,
,13249,0.34587913751602173,110,,,,,,,,,,,,,,
,13299,0.19604413211345673,110,,,,,,,,,,,,,,
,13319,,110,1.0037531852722168,20.846256256103516,5.582631587982178,1.6836508512496948,13.579973220825195,,,,,,,,,
,13319,,110,,,,,,5.368370532989502,2.8781728744506836,0.8598747849464417,1.6303225755691528,,,,,
0.0008436027497438973,13320,,,,,,,,,,,,,,,,
,13349,0.13700516521930695,111,,,,,,,,,,,,,,
,13399,0.2709188461303711,111,,,,,,,,,,,,,,
,13439,,111,1.0121878385543823,20.225963592529297,3.610988140106201,2.215330123901367,14.399645805358887,,,,,,,,,
,13439,,111,,,,,,5.469577312469482,3.009918451309204,0.8790392279624939,1.5806198120117188,,,,,
0.0008406674214640047,13440,,,,,,,,,,,,,,,,
,13449,0.15261946618556976,112,,,,,,,,,,,,,,
,13499,0.2827431559562683,112,,,,,,,,,,,,,,
,13549,0.2530049681663513,112,,,,,,,,,,,,,,
,13559,,112,0.9675723314285278,20.13735008239746,4.740806579589844,1.7279574871063232,13.668586730957031,,,,,,,,,
,13559,,112,,,,,,5.2816853523254395,2.865668296813965,0.8580504059791565,1.5579665899276733,,,,,
0.0008377100202076121,13560,,,,,,,,,,,,,,,,
,13599,0.2030257284641266,113,,,,,,,,,,,,,,
,13649,0.25075674057006836,113,,,,,,,,,,,,,,
,13679,,113,1.008825659751892,20.957021713256836,5.693398475646973,1.4178112745285034,13.845812797546387,,,,,,,,,
,13679,,113,,,,,,5.419642925262451,2.8628954887390137,0.8288054466247559,1.7279422283172607,,,,,
0.0008347307378762491,13680,,,,,,,,,,,,,,,,
,13699,0.2992294430732727,114,,,,,,,,,,,,,,
,13749,0.30967772006988525,114,,,,,,,,,,,,,,
,13799,0.31838715076446533,114,,,,,,,,,,,,,,
,13799,,114,0.9969735741615295,20.536109924316406,4.319893836975098,1.9937970638275146,14.222418785095215,,,,,,,,,
,13799,,114,,,,,,5.730177879333496,3.0358102321624756,0.9031707644462585,1.7911968231201172,,,,,
0.0008317297677912766,13800,,,,,,,,,,,,,,,,
,13849,0.21271495521068573,115,,,,,,,,,,,,,,
,13899,0.23901405930519104,115,,,,,,,,,,,,,,
,13919,,115,1.011676549911499,20.44749641418457,4.940186023712158,1.5285778045654297,13.97873306274414,,,,,,,,,
,13919,,115,,,,,,5.242613792419434,2.7075114250183105,0.8896306157112122,1.6454718112945557,,,,,
0.000828707304681343,13920,,,,,,,,,,,,,,,,
,13949,0.2161431759595871,116,,,,,,,,,,,,,,
,13999,0.20957234501838684,116,,,,,,,,,,,,,,
,14039,,116,1.0001949071884155,19.89366340637207,4.7851128578186035,1.6614975929260254,13.447053909301758,,,,,,,,,
,14039,,116,,,,,,5.077086448669434,2.8051419258117676,0.8583513498306274,1.413593053817749,,,,,
0.000825663544669748,14040,,,,,,,,,,,,,,,,
,14049,0.2552652955055237,117,,,,,,,,,,,,,,
,14099,0.34291937947273254,117,,,,,,,,,,,,,,
,14149,0.21638508141040802,117,,,,,,,,,,,,,,
,14159,,117,1.0771918296813965,20.80194854736328,4.541426658630371,1.794417381286621,14.466105461120605,,,,,,,,,
,14159,,117,,,,,,4.966031074523926,2.7051186561584473,0.830651581287384,1.4302610158920288,,,,,
0.0008225986852617167,14160,,,,,,,,,,,,,,,,
,14199,0.2895393967628479,118,,,,,,,,,,,,,,
,14249,0.14887788891792297,118,,,,,,,,,,,,,,
,14279,,118,1.0534884929656982,20.248117446899414,4.652193069458008,1.8387240171432495,13.757200241088867,,,,,,,,,
,14279,,118,,,,,,5.330393314361572,2.874664068222046,0.8833459615707397,1.5723834037780762,,,,,
0.0008195129253315844,14280,,,,,,,,,,,,,,,,
,14299,0.26287421584129333,119,,,,,,,,,,,,,,
,14349,0.22928723692893982,119,,,,,,,,,,,,,,
,14399,0.23264926671981812,119,,,,,,,,,,,,,,
,14399,,119,1.0576951503753662,20.13735008239746,3.9211342334747314,2.0381035804748535,14.178112983703613,,,,,,,,,
,14399,,119,,,,,,5.59378719329834,2.9806814193725586,0.853992223739624,1.7591134309768677,,,,,
0.0008164064651098905,14400,,,,,,,,,,,,,,,,
,14449,0.2201099395751953,120,,,,,,,,,,,,,,
,14499,0.2198740839958191,120,,,,,,,,,,,,,,
,14519,,120,1.0906846523284912,22.131147384643555,6.579530239105225,1.3291980028152466,14.222418785095215,,,,,,,,,
,14519,,120,,,,,,6.1163554191589355,3.1455540657043457,1.0127418041229248,1.958059310913086,,,,,
0.0008132795061703873,14520,,,,,,,,,,,,,,,,
,14549,0.362156480550766,121,,,,,,,,,,,,,,
,14599,0.2745507061481476,121,,,,,,,,,,,,,,
,14639,,121,1.026842713356018,21.3779354095459,5.449711799621582,1.7722641229629517,14.155959129333496,,,,,,,,,
,14639,,121,,,,,,6.723697662353516,3.330803632736206,1.02656090259552,2.366333246231079,,,,,
0.0008101322514169592,14640,,,,,,,,,,,,,,,,
,14649,0.27216964960098267,122,,,,,,,,,,,,,,
,14699,0.21198785305023193,122,,,,,,,,,,,,,,
,14749,0.3611346483230591,122,,,,,,,,,,,,,,
,14759,,122,1.0789833068847656,21.688081741333008,4.674346446990967,2.1488702297210693,14.86486530303955,,,,,,,,,
,14759,,122,,,,,,5.14650297164917,2.765059232711792,0.8497298359870911,1.531713604927063,,,,,
0.0008069649050704567,14760,,,,,,,,,,,,,,,,
,14799,0.19622927904129028,123,,,,,,,,,,,,,,
,14849,0.24767592549324036,123,,,,,,,,,,,,,,
,14879,,123,1.1190232038497925,22.507753372192383,5.272485733032227,1.9494904279708862,15.285778045654297,,,,,,,,,
,14879,,123,,,,,,5.483928680419922,3.0193185806274414,0.863643229007721,1.6009665727615356,,,,,
0.0008037776726554458,14880,,,,,,,,,,,,,,,,
,14899,0.24253642559051514,124,,,,,,,,,,,,,,
,14949,0.347996324300766,124,,,,,,,,,,,,,,
,14999,0.23612068593502045,124,,,,,,,,,,,,,,
,14999,,124,1.0245498418807983,20.580415725708008,5.383252143859863,1.6393442153930664,13.557820320129395,,,,,,,,,
,14999,,124,,,,,,5.069238185882568,2.7448670864105225,0.7903135418891907,1.5340574979782104,,,,,
0.00080057076098687,15000,,,,,,,,,,,,,,,,
,15049,0.27512940764427185,125,,,,,,,,,,,,,,
,15099,0.27191126346588135,125,,,,,,,,,,,,,,
,15119,,125,1.0393640995025635,21.200708389282227,5.449711799621582,1.4842711687088013,14.266725540161133,,,,,,,,,
,15119,,125,,,,,,4.62939977645874,2.681992292404175,0.8007386922836304,1.1466689109802246,,,,,
0.0007973443781566319,15120,,,,,,,,,,,,,,,,
,15149,0.14281246066093445,126,,,,,,,,,,,,,,
,15199,0.1446434110403061,126,,,,,,,,,,,,,,
,15239,,126,1.0213819742202759,20.225963592529297,4.253433704376221,1.7501107454299927,14.222418785095215,,,,,,,,,
,15239,,126,,,,,,4.406267166137695,2.5577239990234375,0.7751511931419373,1.0733919143676758,,,,,
0.0007940987335200899,15240,,,,,,,,,,,,,,,,
,15249,0.1062510758638382,127,,,,,,,,,,,,,,
,15299,0.2030220925807953,127,,,,,,,,,,,,,,
,15349,0.26246780157089233,127,,,,,,,,,,,,,,
,15359,,127,1.0672783851623535,20.93486976623535,5.338945388793945,1.7722641229629517,13.823659896850586,,,,,,,,,
,15359,,127,,,,,,4.611513614654541,2.68111252784729,0.779585063457489,1.1508159637451172,,,,,
0.000790834037682473,15360,,,,,,,,,,,,,,,,
,15399,0.24910904467105865,128,,,,,,,,,,,,,,
,15449,0.1977839469909668,128,,,,,,,,,,,,,,
,15479,,128,1.046690821647644,20.80194854736328,5.139565944671631,1.7722641229629517,13.890119552612305,,,,,,,,,
,15479,,128,,,,,,4.933685779571533,2.746134042739868,0.8186120986938477,1.3689395189285278,,,,,
0.000787550502485216,15480,,,,,,,,,,,,,,,,
,15499,0.25335127115249634,129,,,,,,,,,,,,,,
,15549,0.22232139110565186,129,,,,,,,,,,,,,,
,15599,0.28008997440338135,129,,,,,,,,,,,,,,
,15599,,129,1.1516351699829102,21.798847198486328,3.3894550800323486,3.0128488540649414,15.396544456481934,,,,,,,,,
,15599,,129,,,,,,4.658154010772705,2.679334878921509,0.7625693082809448,1.216249704360962,,,,,
0.0007842483409922119,15600,,,,,,,,,,,,,,,,
,15649,0.25492367148399353,130,,,,,,,,,,,,,,
,15699,0.16991601884365082,130,,,,,,,,,,,,,,
,15719,,130,1.0255805253982544,20.93486976623535,5.316792011260986,1.8165706396102905,13.801506042480469,,,,,,,,,
,15719,,130,,,,,,6.456138610839844,3.223942995071411,1.03292715549469,2.199268341064453,,,,,
0.0007809277674759882,15720,,,,,,,,,,,,,,,,
,15749,0.3105732202529907,131,,,,,,,,,,,,,,
,15799,0.20388345420360565,131,,,,,,,,,,,,,,
,15839,,131,1.0287383794784546,20.602569580078125,4.89587926864624,1.617190957069397,14.089499473571777,,,,,,,,,
,15839,,131,,,,,,5.196146011352539,2.8726773262023926,0.8630419969558716,1.460426688194275,,,,,
0.0007775889974038014,15840,,,,,,,,,,,,,,,,
,15849,0.27187174558639526,132,,,,,,,,,,,,,,
,15899,0.28984907269477844,132,,,,,,,,,,,,,,
,15949,0.14837321639060974,132,,,,,,,,,,,,,,
,15959,,132,1.03961980342865,21.11209487915039,4.7851128578186035,1.5950376987457275,14.731945037841797,,,,,,,,,
,15959,,132,,,,,,4.955878734588623,2.7243566513061523,0.8369928598403931,1.3945292234420776,,,,,
0.0007742322474236572,15960,,,,,,,,,,,,,,,,
,15999,0.21021470427513123,133,,,,,,,,,,,,,,
,16049,0.15673202276229858,133,,,,,,,,,,,,,,
,16079,,133,1.0712215900421143,21.089942932128906,4.918032646179199,1.7058041095733643,14.466105461120605,,,,,,,,,
,16079,,133,,,,,,4.304877281188965,2.4791910648345947,0.7181674242019653,1.1075187921524048,,,,,
0.0007708577353502513,16080,,,,,,,,,,,,,,,,
,16099,0.21408632397651672,134,,,,,,,,,,,,,,
,16149,0.1772080361843109,134,,,,,,,,,,,,,,
,16199,0.3682591915130615,134,,,,,,,,,,,,,,
,16199,,134,1.0519351959228516,20.846256256103516,4.984492778778076,1.5285778045654297,14.333185195922852,,,,,,,,,
,16199,,134,,,,,,4.4244489669799805,2.5875988006591797,0.7686893343925476,1.0681607723236084,,,,,
0.0007674656801508363,16200,,,,,,,,,,,,,,,,
,16249,0.18588578701019287,135,,,,,,,,,,,,,,
,16299,0.16301792860031128,135,,,,,,,,,,,,,,
,16319,,135,1.022212266921997,20.624723434448242,5.516171932220459,1.5285778045654297,13.579973220825195,,,,,,,,,
,16319,,135,,,,,,4.675453186035156,2.5878536701202393,0.7916111350059509,1.2959883213043213,,,,,
0.0007640563019310129,16320,,,,,,,,,,,,,,,,
,16349,0.23301377892494202,136,,,,,,,,,,,,,,
,16399,0.1499444842338562,136,,,,,,,,,,,,,,
,16439,,136,1.0417789220809937,21.3779354095459,6.6681437492370605,1.1962782144546509,13.513513565063477,,,,,,,,,
,16439,,136,,,,,,4.265709400177002,2.5599758625030518,0.7180587649345398,0.9876747131347656,,,,,
0.0007606298219204481,16440,,,,,,,,,,,,,,,,
,16449,0.1393725425004959,137,,,,,,,,,,,,,,
,16499,0.19207818806171417,137,,,,,,,,,,,,,,
,16549,0.2822195589542389,137,,,,,,,,,,,,,,
,16559,,137,1.0657058954238892,21.156402587890625,4.918032646179199,1.6836508512496948,14.554718971252441,,,,,,,,,
,16559,,137,,,,,,4.1198039054870605,2.5374903678894043,0.7043223977088928,0.8779909610748291,,,,,
0.0007571864624585195,16560,,,,,,,,,,,,,,,,
,16599,0.1547715663909912,138,,,,,,,,,,,,,,
,16649,0.22921809554100037,138,,,,,,,,,,,,,,
,16679,,138,1.105797290802002,20.602569580078125,4.8294196128845215,1.8387240171432495,13.934426307678223,,,,,,,,,
,16679,,138,,,,,,3.9017937183380127,2.376622200012207,0.6874982714653015,0.8376732468605042,,,,,
0.0007537264469798879,16680,,,,,,,,,,,,,,,,
,16699,0.17530030012130737,139,,,,,,,,,,,,,,
,16749,0.19959726929664612,139,,,,,,,,,,,,,,
,16799,0.15116660296916962,139,,,,,,,,,,,,,,
,16799,,139,1.0630820989608765,20.80194854736328,5.006646156311035,1.8387240171432495,13.956579208374023,,,,,,,,,
,16799,,139,,,,,,3.980959415435791,2.4239680767059326,0.7325404286384583,0.8244509100914001,,,,,
0.0007502499999999995,16800,,,,,,,,,,,,,,,,
,16849,0.21797829866409302,140,,,,,,,,,,,,,,
,16899,0.1655658781528473,140,,,,,,,,,,,,,,
,16919,,140,1.1128451824188232,21.333629608154297,5.516171932220459,1.7722641229629517,14.04519271850586,,,,,,,,,
,16919,,140,,,,,,4.031535625457764,2.4271912574768066,0.6974211931228638,0.906923234462738,,,,,
0.0007467573471005168,16920,,,,,,,,,,,,,,,,
,16949,0.18092837929725647,141,,,,,,,,,,,,,,
,16999,0.14670366048812866,141,,,,,,,,,,,,,,
,17039,,141,1.024442195892334,20.314577102661133,5.272485733032227,1.7501107454299927,13.291980743408203,,,,,,,,,
,17039,,141,,,,,,4.386037349700928,2.6241953372955322,0.7014358639717102,1.060405969619751,,,,,
0.0007432487149146811,17040,,,,,,,,,,,,,,,,
,17049,0.15876136720180511,142,,,,,,,,,,,,,,
,17099,0.2294844090938568,142,,,,,,,,,,,,,,
,17149,0.16137966513633728,142,,,,,,,,,,,,,,
,17159,,142,1.0593326091766357,20.80194854736328,5.050952434539795,1.9051839113235474,13.845812797546387,,,,,,,,,
,17159,,142,,,,,,4.111418724060059,2.475663423538208,0.7173640727996826,0.918391227722168,,,,,
0.0007397243311126073,17160,,,,,,,,,,,,,,,,
,17199,0.15185722708702087,143,,,,,,,,,,,,,,
,17249,0.1886836290359497,143,,,,,,,,,,,,,,
,17279,,143,0.9815095067024231,19.78289794921875,5.626938343048096,1.1962782144546509,12.959680557250977,,,,,,,,,
,17279,,143,,,,,,3.9683196544647217,2.4573001861572266,0.6680440902709961,0.8429751992225647,,,,,
0.0007361844243865093,17280,,,,,,,,,,,,,,,,
,17299,0.18168294429779053,144,,,,,,,,,,,,,,
,17349,0.15582546591758728,144,,,,,,,,,,,,,,
,17399,0.15211249887943268,144,,,,,,,,,,,,,,
,17399,,144,1.0823779106140137,21.045635223388672,4.8515729904174805,2.0159504413604736,14.178112983703613,,,,,,,,,
,17399,,144,,,,,,3.862307548522949,2.3484036922454834,0.6766586899757385,0.8372450470924377,,,,,
0.0007326292244358619,17400,,,,,,,,,,,,,,,,
,17449,0.1582712084054947,145,,,,,,,,,,,,,,
,17499,0.2722117006778717,145,,,,,,,,,,,,,,
,17519,,145,1.0928537845611572,21.444395065307617,6.1807708740234375,1.4178112745285034,13.845812797546387,,,,,,,,,
,17519,,145,,,,,,4.015799045562744,2.4579222202301025,0.6922367811203003,0.8656399846076965,,,,,
0.0007290589619524949,17520,,,,,,,,,,,,,,,,
,17549,0.20286719501018524,146,,,,,,,,,,,,,,
,17599,0.1717655062675476,146,,,,,,,,,,,,,,
,17639,,146,1.0514140129089355,20.425342559814453,5.693398475646973,1.5507310628890991,13.181214332580566,,,,,,,,,
,17639,,146,,,,,,4.047103404998779,2.4420511722564697,0.7032445669174194,0.9018077254295349,,,,,
0.0007254738686056245,17640,,,,,,,,,,,,,,,,
,17649,0.14850874245166779,147,,,,,,,,,,,,,,
,17699,0.15942639112472534,147,,,,,,,,,,,,,,
,17749,0.1625446379184723,147,,,,,,,,,,,,,,
,17759,,147,1.0122945308685303,20.13735008239746,4.452813625335693,1.8830305337905884,13.801506042480469,,,,,,,,,
,17759,,147,,,,,,3.837897300720215,2.3641116619110107,0.6632723212242126,0.8105132579803467,,,,,
0.0007218741770268206,17760,,,,,,,,,,,,,,,,
,17799,0.22931396961212158,148,,,,,,,,,,,,,,
,17849,0.18275770545005798,148,,,,,,,,,,,,,,
,17879,,148,1.08060884475708,21.178556442260742,6.513070583343506,1.3956578969955444,13.269826889038086,,,,,,,,,
,17879,,148,,,,,,3.8215508460998535,2.339977741241455,0.6011583209037781,0.8804149031639099,,,,,
0.0007182601207949108,17880,,,,,,,,,,,,,,,,
,17899,0.15279003977775574,149,,,,,,,,,,,,,,
,17949,0.10409694910049438,149,,,,,,,,,,,,,,
,17999,0.2659080922603607,149,,,,,,,,,,,,,,
,17999,,149,1.0462852716445923,20.2702693939209,5.471865177154541,1.3956578969955444,13.40274715423584,,,,,,,,,
,17999,,149,,,,,,3.878912925720215,2.4671483039855957,0.6742346286773682,0.7375301122665405,,,,,
0.0007146319344208251,18000,,,,,,,,,,,,,,,,
,18049,0.128567636013031,150,,,,,,,,,,,,,,
,18099,0.1553267389535904,150,,,,,,,,,,,,,,
,18119,,150,1.0765900611877441,20.225963592529297,4.984492778778076,1.5507310628890991,13.690739631652832,,,,,,,,,
,18119,,150,,,,,,3.6743128299713135,2.280085325241089,0.6599159836769104,0.7343115210533142,,,,,
0.0007109898533323779,18120,,,,,,,,,,,,,,,,
,18149,0.16983607411384583,151,,,,,,,,,,,,,,
,18199,0.23327013850212097,151,,,,,,,,,,,,,,
,18239,,151,1.0918680429458618,19.84935760498047,3.9875941276550293,1.9716438055038452,13.890119552612305,,,,,,,,,
,18239,,151,,,,,,3.741112232208252,2.338367462158203,0.6614121198654175,0.7413327693939209,,,,,
0.0007073341138589916,18240,,,,,,,,,,,,,,,,
,18249,0.17838755249977112,152,,,,,,,,,,,,,,
,18299,0.19792655110359192,152,,,,,,,,,,,,,,
,18349,0.11495829373598099,152,,,,,,,,,,,,,,
,18359,,152,1.0680265426635742,20.225963592529297,5.050952434539795,1.5728843212127686,13.602127075195312,,,,,,,,,
,18359,,152,,,,,,3.5754528045654297,2.276911973953247,0.6252232789993286,0.6733173727989197,,,,,
0.0007036649532163617,18360,,,,,,,,,,,,,,,,
,18399,0.1225133016705513,153,,,,,,,,,,,,,,
,18449,0.21438029408454895,153,,,,,,,,,,,,,,
,18479,,153,1.1044317483901978,20.890562057495117,6.114311218261719,1.2848914861679077,13.491360664367676,,,,,,,,,
,18479,,153,,,,,,3.6894748210906982,2.3023202419281006,0.6174279451370239,0.7697268128395081,,,,,
0.0006999826094910645,18480,,,,,,,,,,,,,,,,
,18499,0.17743156850337982,154,,,,,,,,,,,,,,
,18549,0.13911408185958862,154,,,,,,,,,,,,,,
,18599,0.23769301176071167,154,,,,,,,,,,,,,,
,18599,,154,1.0875864028930664,20.20380973815918,4.918032646179199,1.5728843212127686,13.71289348602295,,,,,,,,,
,18599,,154,,,,,,3.783998966217041,2.338225841522217,0.6013757586479187,0.8443974852561951,,,,,
0.0006962873216251072,18600,,,,,,,,,,,,,,,,
,18649,0.13598793745040894,155,,,,,,,,,,,,,,
,18699,0.2171509861946106,155,,,,,,,,,,,,,,
,18719,,155,1.0827195644378662,19.982276916503906,4.408506870269775,1.617190957069397,13.956579208374023,,,,,,,,,
,18719,,155,,,,,,3.907133102416992,2.3713016510009766,0.6576226353645325,0.8782088160514832,,,,,
0.0006925793294004237,18720,,,,,,,,,,,,,,,,
,18749,0.19879305362701416,156,,,,,,,,,,,,,,
,18799,0.1948869228363037,156,,,,,,,,,,,,,,
,18839,,156,1.0982515811920166,21.222862243652344,5.183872222900391,1.8165706396102905,14.222418785095215,,,,,,,,,
,18839,,156,,,,,,3.914252758026123,2.333682060241699,0.6787641644477844,0.9018063545227051,,,,,
0.0006888588734233158,18840,,,,,,,,,,,,,,,,
,18849,0.2608706057071686,157,,,,,,,,,,,,,,
,18899,0.18907439708709717,157,,,,,,,,,,,,,,
,18949,0.24163593351840973,157,,,,,,,,,,,,,,
,18959,,157,1.1526442766189575,21.887460708618164,5.804164886474609,1.9716438055038452,14.111652374267578,,,,,,,,,
,18959,,157,,,,,,4.14936637878418,2.4898955821990967,0.7007573246955872,0.9587132334709167,,,,,
0.0006851261951088402,18960,,,,,,,,,,,,,,,,
,18999,0.23294061422348022,158,,,,,,,,,,,,,,
,19049,0.19546592235565186,158,,,,,,,,,,,,,,
,19079,,158,1.0632508993148804,20.75764274597168,6.003544330596924,1.3291980028152466,13.42490005493164,,,,,,,,,
,19079,,158,,,,,,3.82666015625,2.2704484462738037,0.6936336755752563,0.8625780940055847,,,,,
0.0006813815366651437,19080,,,,,,,,,,,,,,,,
,19099,0.14772140979766846,159,,,,,,,,,,,,,,
,19149,0.18556241691112518,159,,,,,,,,,,,,,,
,19199,0.17208117246627808,159,,,,,,,,,,,,,,
,19199,,159,1.133926510810852,21.599468231201172,5.693398475646973,1.6393442153930664,14.266725540161133,,,,,,,,,
,19199,,159,,,,,,4.098891258239746,2.4722814559936523,0.6239239573478699,1.002685785293579,,,,,
0.0006776251410777462,19200,,,,,,,,,,,,,,,,
,19249,0.19326752424240112,160,,,,,,,,,,,,,,
,19299,0.3005555272102356,160,,,,,,,,,,,,,,
,19319,,160,1.0579991340637207,20.33673095703125,6.025697708129883,1.3513513803482056,12.959680557250977,,,,,,,,,
,19319,,160,,,,,,4.358572959899902,2.4882590770721436,0.7868501543998718,1.0834637880325317,,,,,
0.0006738572520937745,19320,,,,,,,,,,,,,,,,
,19349,0.14268085360527039,161,,,,,,,,,,,,,,
,19399,0.18779422342777252,161,,,,,,,,,,,,,,
,19439,,161,1.0792322158813477,20.159503936767578,4.630039691925049,1.8387240171432495,13.690739631652832,,,,,,,,,
,19439,,161,,,,,,3.708760976791382,2.279874324798584,0.6661701202392578,0.76271653175354,,,,,
0.0006700781142061451,19440,,,,,,,,,,,,,,,,
,19449,0.14790724217891693,162,,,,,,,,,,,,,,
,19499,0.18015235662460327,162,,,,,,,,,,,,,,
,19549,0.11446234583854675,162,,,,,,,,,,,,,,
,19559,,162,1.066187858581543,19.71643829345703,5.095259189605713,1.3513513803482056,13.269826889038086,,,,,,,,,
,19559,,162,,,,,,3.498098850250244,2.2053232192993164,0.6387832760810852,0.6539924144744873,,,,,
0.0006662879726376997,19560,,,,,,,,,,,,,,,,
,19599,0.11226468533277512,163,,,,,,,,,,,,,,
,19649,0.1724291741847992,163,,,,,,,,,,,,,,
,19679,,163,1.0845723152160645,20.13735008239746,5.16171932220459,1.5950376987457275,13.380593299865723,,,,,,,,,
,19679,,163,,,,,,3.403810739517212,2.2504193782806396,0.5842567086219788,0.5691347718238831,,,,,
0.0006624870733252932,19680,,,,,,,,,,,,,,,,
,19699,0.3646050691604614,164,,,,,,,,,,,,,,
,19749,0.2546427845954895,164,,,,,,,,,,,,,,
,19799,0.21228797733783722,164,,,,,,,,,,,,,,
,19799,,164,1.03574800491333,20.20380973815918,5.006646156311035,1.5064244270324707,13.690739631652832,,,,,,,,,
,19799,,164,,,,,,3.368945598602295,2.198694944381714,0.6140375137329102,0.5562133193016052,,,,,
0.0006586756629038353,19800,,,,,,,,,,,,,,,,
,19849,0.16135281324386597,165,,,,,,,,,,,,,,
,19899,0.16299451887607574,165,,,,,,,,,,,,,,
,19919,,165,1.0990221500396729,20.38103675842285,5.028799057006836,1.5507310628890991,13.801506042480469,,,,,,,,,
,19919,,165,,,,,,3.293355703353882,2.168125867843628,0.6078985929489136,0.5173313021659851,,,,,
0.0006548539886902859,19920,,,,,,,,,,,,,,,,
,19949,0.2070523351430893,166,,,,,,,,,,,,,,
,19999,0.15678872168064117,166,,,,,,,,,,,,,,
,20039,,166,1.0989290475845337,20.669029235839844,5.338945388793945,1.7722641229629517,13.557820320129395,,,,,,,,,
,20039,,166,,,,,,3.2182700634002686,2.1040408611297607,0.5861454010009766,0.5280838012695312,,,,,
0.0006510222986676085,20040,,,,,,,,,,,,,,,,
,20049,0.22238218784332275,167,,,,,,,,,,,,,,
,20099,0.2630491256713867,167,,,,,,,,,,,,,,
,20149,0.16534343361854553,167,,,,,,,,,,,,,,
,20159,,167,1.117850661277771,20.558263778686523,4.984492778778076,1.4399645328521729,14.133806228637695,,,,,,,,,
,20159,,167,,,,,,3.789470672607422,2.386219024658203,0.6677542328834534,0.7354974150657654,,,,,
0.0006471808414686772,20160,,,,,,,,,,,,,,,,
,20199,0.24737495183944702,168,,,,,,,,,,,,,,
,20249,0.21948857605457306,168,,,,,,,,,,,,,,
,20279,,168,1.0744527578353882,20.292423248291016,6.557376861572266,1.0190517902374268,12.715994834899902,,,,,,,,,
,20279,,168,,,,,,3.698249340057373,2.3356640338897705,0.6909270882606506,0.6716582179069519,,,,,
0.0006433298663601449,20280,,,,,,,,,,,,,,,,
,20299,0.13465248048305511,169,,,,,,,,,,,,,,
,20349,0.22852057218551636,169,,,,,,,,,,,,,,
,20399,0.12845379114151,169,,,,,,,,,,,,,,
,20399,,169,1.120455026626587,21.24501609802246,5.959238052368164,1.4621179103851318,13.823659896850586,,,,,,,,,
,20399,,169,,,,,,3.7043673992156982,2.372614860534668,0.6121098399162292,0.7196426391601562,,,,,
0.0006394696232262677,20400,,,,,,,,,,,,,,,,
,20449,0.16436713933944702,170,,,,,,,,,,,,,,
,20499,0.1764368861913681,170,,,,,,,,,,,,,,
,20519,,170,1.1215689182281494,21.289321899414062,6.446610450744629,1.1741249561309814,13.668586730957031,,,,,,,,,
,20519,,170,,,,,,3.425194263458252,2.1854166984558105,0.6295099854469299,0.6102673411369324,,,,,
0.0006356003625526906,20520,,,,,,,,,,,,,,,,
,20549,0.23246994614601135,171,,,,,,,,,,,,,,
,20599,0.17701953649520874,171,,,,,,,,,,,,,,
,20639,,171,1.1247278451919556,21.953920364379883,5.693398475646973,1.5728843212127686,14.687638282775879,,,,,,,,,
,20639,,171,,,,,,3.6597633361816406,2.299753427505493,0.6558912992477417,0.7041186094284058,,,,,
0.0006317223354101939,20640,,,,,,,,,,,,,,,,
,20649,0.19646143913269043,172,,,,,,,,,,,,,,
,20699,0.11259475350379944,172,,,,,,,,,,,,,,
,20749,0.20878246426582336,172,,,,,,,,,,,,,,
,20759,,172,1.04127836227417,20.912715911865234,6.025697708129883,1.6614975929260254,13.225520133972168,,,,,,,,,
,20759,,172,,,,,,3.572115182876587,2.2385804653167725,0.6523470878601074,0.6811876893043518,,,,,
0.0006278357934384011,20760,,,,,,,,,,,,,,,,
,20799,0.12414984405040741,173,,,,,,,,,,,,,,
,20849,0.12820807099342346,173,,,,,,,,,,,,,,
,20879,,173,1.0779964923858643,20.735488891601562,6.003544330596924,1.5285778045654297,13.203367233276367,,,,,,,,,
,20879,,173,,,,,,3.2942535877227783,2.179656505584717,0.606836199760437,0.5077608823776245,,,,,
0.0006239409888294516,20880,,,,,,,,,,,,,,,,
,20899,0.14826588332653046,174,,,,,,,,,,,,,,
,20949,0.17266705632209778,174,,,,,,,,,,,,,,
,20999,0.13850320875644684,174,,,,,,,,,,,,,,
,20999,,174,1.0773011445999146,20.358882904052734,5.250332355499268,1.5728843212127686,13.535666465759277,,,,,,,,,
,20999,,174,,,,,,3.2242989540100098,2.1811435222625732,0.5758658647537231,0.4672897160053253,,,,,
0.0006200381743116347,21000,,,,,,,,,,,,,,,,
,21049,0.15453246235847473,175,,,,,,,,,,,,,,
,21099,0.2966797947883606,175,,,,,,,,,,,,,,
,21119,,175,1.052390217781067,20.469650268554688,6.446610450744629,1.1962782144546509,12.826761245727539,,,,,,,,,
,21119,,175,,,,,,3.2648308277130127,2.0975475311279297,0.6069324612617493,0.5603507161140442,,,,,
0.0006161276031329915,21120,,,,,,,,,,,,,,,,
,21149,0.10510968416929245,176,,,,,,,,,,,,,,
,21199,0.2320839911699295,176,,,,,,,,,,,,,,
,21239,,176,1.0804635286331177,20.44749641418457,5.737704753875732,0.9747452139854431,13.73504638671875,,,,,,,,,
,21239,,176,,,,,,3.1778581142425537,2.0699431896209717,0.6083210706710815,0.4995940029621124,,,,,
0.0006122095290448819,21240,,,,,,,,,,,,,,,,
,21249,0.158075213432312,177,,,,,,,,,,,,,,
,21299,0.18327616155147552,177,,,,,,,,,,,,,,
,21349,0.11684022843837738,177,,,,,,,,,,,,,,
,21359,,177,1.0494779348373413,20.292423248291016,5.671245098114014,1.4178112745285034,13.203367233276367,,,,,,,,,
,21359,,177,,,,,,3.1864733695983887,2.118358612060547,0.5746099352836609,0.49350470304489136,,,,,
0.0006082842062855188,21360,,,,,,,,,,,,,,,,
,21399,0.22516615688800812,178,,,,,,,,,,,,,,
,21449,0.1817956268787384,178,,,,,,,,,,,,,,
,21479,,178,1.1061075925827026,20.558263778686523,5.892777919769287,1.2627381086349487,13.40274715423584,,,,,,,,,
,21479,,178,,,,,,3.172597646713257,2.1370396614074707,0.5768359303474426,0.45872190594673157,,,,,
0.0006043518895634702,21480,,,,,,,,,,,,,,,,
,21499,0.17603538930416107,179,,,,,,,,,,,,,,
,21549,0.20906533300876617,179,,,,,,,,,,,,,,
,21599,0.09460173547267914,179,,,,,,,,,,,,,,
,21599,,179,1.1103492975234985,20.40319061279297,5.073105812072754,1.6393442153930664,13.690739631652832,,,,,,,,,
,21599,,179,,,,,,3.234131336212158,2.120854377746582,0.5847792625427246,0.5284976959228516,,,,,
0.0006004128340411337,21600,,,,,,,,,,,,,,,,
,21649,0.23752546310424805,180,,,,,,,,,,,,,,
,21699,0.14957433938980103,180,,,,,,,,,,,,,,
,21719,,180,1.0655874013900757,20.115196228027344,5.449711799621582,1.4842711687088013,13.181214332580566,,,,,,,,,
,21719,,180,,,,,,3.0162253379821777,2.0569534301757812,0.5550073981285095,0.4042646586894989,,,,,
0.0005964672953181769,21720,,,,,,,,,,,,,,,,
,21749,0.18427956104278564,181,,,,,,,,,,,,,,
,21799,0.1077720895409584,181,,,,,,,,,,,,,,
,21839,,181,1.0887768268585205,20.358882904052734,5.826318264007568,1.4842711687088013,13.048294067382812,,,,,,,,,
,21839,,181,,,,,,2.9820306301116943,2.027064323425293,0.5677433609962463,0.3872230052947998,,,,,
0.0005925155294149532,21840,,,,,,,,,,,,,,,,
,21849,0.06885157525539398,182,,,,,,,,,,,,,,
,21899,0.14079222083091736,182,,,,,,,,,,,,,,
,21949,0.1478879749774933,182,,,,,,,,,,,,,,
,21959,,182,1.1132211685180664,20.890562057495117,4.8294196128845215,1.8830305337905884,14.178112983703613,,,,,,,,,
,21959,,182,,,,,,2.8192007541656494,1.9425733089447021,0.5048495531082153,0.37177780270576477,,,,,
0.0005885577927558894,21960,,,,,,,,,,,,,,,,
,21999,0.12389735877513885,183,,,,,,,,,,,,,,
,22049,0.20433641970157623,183,,,,,,,,,,,,,,
,22079,,183,1.0803132057189941,20.02658462524414,5.006646156311035,1.6836508512496948,13.336287498474121,,,,,,,,,
,22079,,183,,,,,,3.0729482173919678,2.157660484313965,0.5510966777801514,0.36419108510017395,,,,,
0.0005845943421528452,22080,,,,,,,,,,,,,,,,
,22099,0.20245423913002014,184,,,,,,,,,,,,,,
,22149,0.12347029149532318,184,,,,,,,,,,,,,,
,22199,0.09039982408285141,184,,,,,,,,,,,,,,
,22199,,184,1.0833163261413574,20.02658462524414,5.516171932220459,1.4621179103851318,13.048294067382812,,,,,,,,,
,22199,,184,,,,,,3.0500879287719727,2.042555570602417,0.5621838569641113,0.4453485906124115,,,,,
0.0005806254347884509,22200,,,,,,,,,,,,,,,,
,22249,0.13270139694213867,185,,,,,,,,,,,,,,
,22299,0.20072518289089203,185,,,,,,,,,,,,,,
,22319,,185,1.0776549577713013,19.694284439086914,4.740806579589844,1.7501107454299927,13.203367233276367,,,,,,,,,
,22319,,185,,,,,,3.0615484714508057,2.0180270671844482,0.5769734978675842,0.46654796600341797,,,,,
0.000576651328199417,22320,,,,,,,,,,,,,,,,
,22349,0.13847987353801727,186,,,,,,,,,,,,,,
,22399,0.2054024189710617,186,,,,,,,,,,,,,,
,22439,,186,1.0653257369995117,19.89366340637207,5.516171932220459,1.3291980028152466,13.048294067382812,,,,,,,,,
,22439,,186,,,,,,2.9612443447113037,1.9810271263122559,0.5642426609992981,0.41597452759742737,,,,,
0.0005726722802598255,22440,,,,,,,,,,,,,,,,
,22449,0.14898118376731873,187,,,,,,,,,,,,,,
,22499,0.19772914052009583,187,,,,,,,,,,,,,,
,22549,0.21201758086681366,187,,,,,,,,,,,,,,
,22559,,187,1.065807580947876,19.915817260742188,5.183872222900391,1.4399645328521729,13.291980743408203,,,,,,,,,
,22559,,187,,,,,,2.9536213874816895,1.9782394170761108,0.5673700571060181,0.40801188349723816,,,,,
0.000568688549164395,22560,,,,,,,,,,,,,,,,
,22599,0.08821308612823486,188,,,,,,,,,,,,,,
,22649,0.09930123388767242,188,,,,,,,,,,,,,,
,22679,,188,1.1069351434707642,20.292423248291016,5.516171932220459,1.5507310628890991,13.225520133972168,,,,,,,,,
,22679,,188,,,,,,2.977677822113037,2.031794786453247,0.5463880896568298,0.39949479699134827,,,,,
0.000564700393411727,22680,,,,,,,,,,,,,,,,
,22699,0.13074222207069397,189,,,,,,,,,,,,,,
,22749,0.19378036260604858,189,,,,,,,,,,,,,,
,22799,0.20050670206546783,189,,,,,,,,,,,,,,
,22799,,189,1.0889253616333008,20.536109924316406,5.117412567138672,1.7722641229629517,13.646432876586914,,,,,,,,,
,22799,,189,,,,,,2.9715869426727295,2.0898468494415283,0.5169765949249268,0.3647633194923401,,,,,
0.0005607080717875333,22800,,,,,,,,,,,,,,,,
,22849,0.31437477469444275,190,,,,,,,,,,,,,,
,22899,0.26393774151802063,190,,,,,,,,,,,,,,
,22919,,190,1.065393328666687,20.75764274597168,5.848471641540527,1.151971697807312,13.757200241088867,,,,,,,,,
,22919,,190,,,,,,2.9907596111297607,2.05434250831604,0.5445244908332825,0.3918926417827606,,,,,
0.0005567118433478429,22920,,,,,,,,,,,,,,,,
,22949,0.33592548966407776,191,,,,,,,,,,,,,,
,22999,0.11946207284927368,191,,,,,,,,,,,,,,
,23039,,191,1.0630569458007812,19.84935760498047,6.025697708129883,1.2627381086349487,12.560921669006348,,,,,,,,,
,23039,,191,,,,,,3.0215272903442383,2.0603201389312744,0.5392136573791504,0.42199328541755676,,,,,
0.0005527119674021924,23040,,,,,,,,,,,,,,,,
,23049,0.2507697343826294,192,,,,,,,,,,,,,,
,23099,0.14253732562065125,192,,,,,,,,,,,,,,
,23149,0.11855689436197281,192,,,,,,,,,,,,,,
,23159,,192,1.1425141096115112,20.912715911865234,5.250332355499268,1.373504638671875,14.28887939453125,,,,,,,,,
,23159,,192,,,,,,3.109523057937622,2.052781820297241,0.5476844310760498,0.509056806564331,,,,,
0.0005487087034967998,23160,,,,,,,,,,,,,,,,
,23199,0.15460443496704102,193,,,,,,,,,,,,,,
,23249,0.17228926718235016,193,,,,,,,,,,,,,,
,23279,,193,1.0570766925811768,19.450597763061523,4.076207160949707,1.8165706396102905,13.557820320129395,,,,,,,,,
,23279,,193,,,,,,3.0493855476379395,2.0751805305480957,0.5539326667785645,0.4202722907066345,,,,,
0.0005447023113977231,23280,,,,,,,,,,,,,,,,
,23299,0.09777478873729706,194,,,,,,,,,,,,,,
,23349,0.13534513115882874,194,,,,,,,,,,,,,,
,23399,0.178785040974617,194,,,,,,,,,,,,,,
,23399,,194,1.0642971992492676,20.292423248291016,5.405405521392822,1.4842711687088013,13.40274715423584,,,,,,,,,
,23399,,194,,,,,,3.0648131370544434,2.078468084335327,0.5852130651473999,0.4011319577693939,,,,,
0.0005406930510740042,23400,,,,,,,,,,,,,,,,
,23449,0.14371757209300995,195,,,,,,,,,,,,,,
,23499,0.1447094827890396,195,,,,,,,,,,,,,,
,23519,,195,1.0381052494049072,19.096145629882812,5.449711799621582,1.5507310628890991,12.095702171325684,,,,,,,,,
,23519,,195,,,,,,2.8373188972473145,1.9534960985183716,0.5203816294670105,0.36344113945961,,,,,
0.0005366811826807999,23520,,,,,,,,,,,,,,,,
,23549,0.17869657278060913,196,,,,,,,,,,,,,,
,23599,0.11278562247753143,196,,,,,,,,,,,,,,
,23639,,196,1.1086761951446533,19.84935760498047,5.272485733032227,1.373504638671875,13.203367233276367,,,,,,,,,
,23639,,196,,,,,,2.779731035232544,1.9069286584854126,0.5515339374542236,0.3212685286998749,,,,,
0.000532666966542501,23640,,,,,,,,,,,,,,,,
,23649,0.16010501980781555,197,,,,,,,,,,,,,,
,23699,0.12195108830928802,197,,,,,,,,,,,,,,
,23749,0.13165229558944702,197,,,,,,,,,,,,,,
,23759,,197,1.0833044052124023,20.314577102661133,5.671245098114014,1.2848914861679077,13.358440399169922,,,,,,,,,
,23759,,197,,,,,,2.866983652114868,1.9411723613739014,0.5634772777557373,0.3623338043689728,,,,,
0.0005286506631358403,23760,,,,,,,,,,,,,,,,
,23799,0.1861347258090973,198,,,,,,,,,,,,,,
,23849,0.17239347100257874,198,,,,,,,,,,,,,,
,23879,,198,1.1384910345077515,20.004430770874023,4.297740459442139,1.9494904279708862,13.757200241088867,,,,,,,,,
,23879,,198,,,,,,2.879887580871582,1.9584888219833374,0.5591747164726257,0.3622240424156189,,,,,
0.0005246325330729903,23880,,,,,,,,,,,,,,,,
,23899,0.17156380414962769,199,,,,,,,,,,,,,,
,23949,0.11566778272390366,199,,,,,,,,,,,,,,
,23999,0.1059008315205574,199,,,,,,,,,,,,,,
,23999,,199,1.1108651161193848,20.070890426635742,5.272485733032227,1.3956578969955444,13.40274715423584,,,,,,,,,
,23999,,199,,,,,,2.885911464691162,1.980797290802002,0.543343722820282,0.3617706000804901,,,,,
0.0005206128370846524,24000,,,,,,,,,,,,,,,,
,24049,0.12099191546440125,200,,,,,,,,,,,,,,
,24099,0.1473703235387802,200,,,,,,,,,,,,,,
,24119,,200,1.104938268661499,20.8241024017334,6.823216438293457,1.2848914861679077,12.715994834899902,,,,,,,,,
,24119,,200,,,,,,2.753553628921509,1.9542676210403442,0.48479023575782776,0.31449565291404724,,,,,
0.000516591836003139,24120,,,,,,,,,,,,,,,,
,24149,0.14537839591503143,201,,,,,,,,,,,,,,
,24199,0.2810971140861511,201,,,,,,,,,,,,,,
,24239,,201,1.0796440839767456,20.09304428100586,6.1586174964904785,1.373504638671875,12.560921669006348,,,,,,,,,
,24239,,201,,,,,,2.8208062648773193,1.902147650718689,0.5917485952377319,0.3269100785255432,,,,,
0.0005125697907454478,24240,,,,,,,,,,,,,,,,
,24249,0.20534101128578186,202,,,,,,,,,,,,,,
,24299,0.1523922085762024,202,,,,,,,,,,,,,,
,24349,0.15115779638290405,202,,,,,,,,,,,,,,
,24359,,202,1.0550854206085205,20.02658462524414,5.604784965515137,1.6614975929260254,12.76030158996582,,,,,,,,,
,24359,,202,,,,,,2.840893507003784,1.993996024131775,0.5494505763053894,0.2974469065666199,,,,,
0.0005085469622963316,24360,,,,,,,,,,,,,,,,
,24399,0.07860822230577469,203,,,,,,,,,,,,,,
,24449,0.15804898738861084,203,,,,,,,,,,,,,,
,24479,,203,1.1278448104858398,20.669029235839844,5.095259189605713,1.6836508512496948,13.890119552612305,,,,,,,,,
,24479,,203,,,,,,2.6871559619903564,1.8749828338623047,0.49716493487358093,0.3150080740451813,,,,,
0.000504523611691364,24480,,,,,,,,,,,,,,,,
,24499,0.1502574384212494,204,,,,,,,,,,,,,,
,24549,0.18711569905281067,204,,,,,,,,,,,,,,
,24599,0.14430159330368042,204,,,,,,,,,,,,,,
,24599,,204,1.0770153999328613,19.605670928955078,5.361098766326904,1.373504638671875,12.871068000793457,,,,,,,,,
,24599,,204,,,,,,2.784987449645996,1.9541603326797485,0.5396943092346191,0.2911328077316284,,,,,
0.0005004999999999996,24600,,,,,,,,,,,,,,,,
,24649,0.2224370837211609,205,,,,,,,,,,,,,,
,24699,0.2088267058134079,205,,,,,,,,,,,,,,
,24719,,205,1.088750958442688,19.89366340637207,6.114311218261719,1.2627381086349487,12.51661491394043,,,,,,,,,
,24719,,205,,,,,,2.740706205368042,1.8711647987365723,0.5310806035995483,0.33846068382263184,,,,,
0.0004964763883086355,24720,,,,,,,,,,,,,,,,
,24749,0.15645381808280945,206,,,,,,,,,,,,,,
,24799,0.08564704656600952,206,,,,,,,,,,,,,,
,24839,,206,1.105223536491394,20.64687728881836,5.604784965515137,1.6614975929260254,13.380593299865723,,,,,,,,,
,24839,,206,,,,,,2.942868947982788,2.0126044750213623,0.5233593583106995,0.40690505504608154,,,,,
0.0004924530377036678,24840,,,,,,,,,,,,,,,,
,24849,0.14646358788013458,207,,,,,,,,,,,,,,
,24899,0.14304229617118835,207,,,,,,,,,,,,,,
,24949,0.194321408867836,207,,,,,,,,,,,,,,
,24959,,207,1.0950089693069458,20.13735008239746,5.028799057006836,1.5507310628890991,13.557820320129395,,,,,,,,,
,24959,,207,,,,,,2.810030937194824,1.963586449623108,0.5455170273780823,0.3009275197982788,,,,,
0.0004884302092545516,24960,,,,,,,,,,,,,,,,
,24999,0.21919365227222443,208,,,,,,,,,,,,,,
,25049,0.1505870670080185,208,,,,,,,,,,,,,,
,25079,,208,1.0935242176055908,20.225963592529297,5.4940185546875,1.8387240171432495,12.893220901489258,,,,,,,,,
,25079,,208,,,,,,2.9004061222076416,1.9932548999786377,0.5382338762283325,0.3689173460006714,,,,,
0.0004844081639968603,25080,,,,,,,,,,,,,,,,
,25099,0.2963240146636963,209,,,,,,,,,,,,,,
,25149,0.13216176629066467,209,,,,,,,,,,,,,,
,25199,0.1315278261899948,209,,,,,,,,,,,,,,
,25199,,209,1.1047061681747437,19.627824783325195,4.630039691925049,1.7722641229629517,13.225520133972168,,,,,,,,,
,25199,,209,,,,,,2.98460054397583,1.9998618364334106,0.5538291335105896,0.4309094548225403,,,,,
0.00048038716291534683,25200,,,,,,,,,,,,,,,,
,25249,0.17302459478378296,210,,,,,,,,,,,,,,
,25299,0.08022964000701904,210,,,,,,,,,,,,,,
,25319,,210,1.0748387575149536,19.760744094848633,4.452813625335693,1.617190957069397,13.690739631652832,,,,,,,,,
,25319,,210,,,,,,2.866790771484375,1.991592526435852,0.530631959438324,0.3445661962032318,,,,,
0.00047636746692700883,25320,,,,,,,,,,,,,,,,
,25349,0.15765386819839478,211,,,,,,,,,,,,,,
,25399,0.13685347139835358,211,,,,,,,,,,,,,,
,25439,,211,1.1058233976364136,19.805051803588867,4.541426658630371,1.7501107454299927,13.513513565063477,,,,,,,,,
,25439,,211,,,,,,2.598565101623535,1.8026082515716553,0.5246705412864685,0.27128633856773376,,,,,
0.0004723493368641588,25440,,,,,,,,,,,,,,,,
,25449,0.13727203011512756,212,,,,,,,,,,,,,,
,25499,0.2126222848892212,212,,,,,,,,,,,,,,
,25549,0.09661431610584259,212,,,,,,,,,,,,,,
,25559,,212,1.1027147769927979,19.694284439086914,5.78201150894165,1.2848914861679077,12.627381324768066,,,,,,,,,
,25559,,212,,,,,,2.6647579669952393,1.8705610036849976,0.5189120769500732,0.27528491616249084,,,,,
0.00046833303345749825,25560,,,,,,,,,,,,,,,,
,25599,0.10270994901657104,213,,,,,,,,,,,,,,
,25649,0.06415931135416031,213,,,,,,,,,,,,,,
,25679,,213,1.0771703720092773,19.517057418823242,5.272485733032227,1.4399645328521729,12.804608345031738,,,,,,,,,
,25679,,213,,,,,,2.6486427783966064,1.8807011842727661,0.4945598542690277,0.27338168025016785,,,,,
0.00046431881731919943,25680,,,,,,,,,,,,,,,,
,25699,0.07060234248638153,214,,,,,,,,,,,,,,
,25749,0.17384189367294312,214,,,,,,,,,,,,,,
,25799,0.10900562256574631,214,,,,,,,,,,,,,,
,25799,,214,1.087242603302002,20.51395606994629,5.20602560043335,1.5728843212127686,13.73504638671875,,,,,,,,,
,25799,,214,,,,,,2.5911786556243896,1.8743820190429688,0.4847303032875061,0.232066348195076,,,,,
0.00046030694892599524,25800,,,,,,,,,,,,,,,,
,25849,0.19417554140090942,215,,,,,,,,,,,,,,
,25899,0.08567224442958832,215,,,,,,,,,,,,,,
,25919,,215,1.11057710647583,19.649978637695312,4.076207160949707,1.6614975929260254,13.912272453308105,,,,,,,,,
,25919,,215,,,,,,2.534102439880371,1.7701550722122192,0.4845214784145355,0.2794257402420044,,,,,
0.0004562976886022762,25920,,,,,,,,,,,,,,,,
,25949,0.18293267488479614,216,,,,,,,,,,,,,,
,25999,0.11599811911582947,216,,,,,,,,,,,,,,
,26039,,216,1.0575013160705566,20.38103675842285,6.291537284851074,1.0412051677703857,13.048294067382812,,,,,,,,,
,26039,,216,,,,,,2.867905855178833,2.000385046005249,0.5526836514472961,0.3148372173309326,,,,,
0.0004522912965031995,26040,,,,,,,,,,,,,,,,
,26049,0.12170375883579254,217,,,,,,,,,,,,,,
,26099,0.09412862360477448,217,,,,,,,,,,,,,,
,26149,0.14888019859790802,217,,,,,,,,,,,,,,
,26159,,217,1.1040884256362915,20.2702693939209,5.361098766326904,1.4842711687088013,13.42490005493164,,,,,,,,,
,26159,,217,,,,,,2.669856309890747,1.8697242736816406,0.5059253573417664,0.2942066192626953,,,,,
0.00044828803259780675,26160,,,,,,,,,,,,,,,,
,26199,0.16432395577430725,218,,,,,,,,,,,,,,
,26249,0.13130101561546326,218,,,,,,,,,,,,,,
,26279,,218,1.0618624687194824,20.004430770874023,5.272485733032227,1.5507310628890991,13.181214332580566,,,,,,,,,
,26279,,218,,,,,,2.5597386360168457,1.8226985931396484,0.5023401379585266,0.23469990491867065,,,,,
0.00044428815665215624,26280,,,,,,,,,,,,,,,,
,26299,0.2642412483692169,219,,,,,,,,,,,,,,
,26349,0.20615096390247345,219,,,,,,,,,,,,,,
,26399,0.056761592626571655,219,,,,,,,,,,,,,,
,26399,,219,1.0619314908981323,19.871511459350586,5.937084674835205,1.2848914861679077,12.649535179138184,,,,,,,,,
,26399,,219,,,,,,2.5404951572418213,1.8234864473342896,0.5009427070617676,0.21606594324111938,,,,,
0.0004402919282124657,26400,,,,,,,,,,,,,,,,
,26449,0.11681587994098663,220,,,,,,,,,,,,,,
,26499,0.041547421365976334,220,,,,,,,,,,,,,,
,26519,,220,1.088736653327942,19.18475914001465,4.8737263679504395,1.4621179103851318,12.84891414642334,,,,,,,,,
,26519,,220,,,,,,2.4648420810699463,1.7939870357513428,0.48664477467536926,0.1842101663351059,,,,,
0.00043629960658827214,26520,,,,,,,,,,,,,,,,
,26549,0.19474267959594727,221,,,,,,,,,,,,,,
,26599,0.13316009938716888,221,,,,,,,,,,,,,,
,26639,,221,1.0808579921722412,20.004430770874023,5.981391429901123,1.3956578969955444,12.627381324768066,,,,,,,,,
,26639,,221,,,,,,2.551814317703247,1.843971610069275,0.5026509761810303,0.20519176125526428,,,,,
0.0004323114508356042,26640,,,,,,,,,,,,,,,,
,26649,0.12667910754680634,222,,,,,,,,,,,,,,
,26699,0.09419862180948257,222,,,,,,,,,,,,,,
,26749,0.1443290114402771,222,,,,,,,,,,,,,,
,26759,,222,1.1203393936157227,20.248117446899414,5.4940185546875,1.4621179103851318,13.291980743408203,,,,,,,,,
,26759,,222,,,,,,2.4945709705352783,1.8334753513336182,0.4700514078140259,0.19104428589344025,,,,,
0.0004283277197401736,26760,,,,,,,,,,,,,,,,
,26799,0.1340494453907013,223,,,,,,,,,,,,,,
,26849,0.11385345458984375,223,,,,,,,,,,,,,,
,26879,,223,1.0601760149002075,19.760744094848633,5.538325309753418,1.3291980028152466,12.893220901489258,,,,,,,,,
,26879,,223,,,,,,2.506500005722046,1.7897676229476929,0.48561719059944153,0.23111526668071747,,,,,
0.0004243486718005821,26880,,,,,,,,,,,,,,,,
,26899,0.1318531334400177,224,,,,,,,,,,,,,,
,26949,0.1690736711025238,224,,,,,,,,,,,,,,
,26999,0.14315302670001984,224,,,,,,,,,,,,,,
,26999,,224,1.086567997932434,19.58351707458496,4.652193069458008,1.5728843212127686,13.358440399169922,,,,,,,,,
,26999,,224,,,,,,2.5234198570251465,1.7852954864501953,0.49668189883232117,0.24144259095191956,,,,,
0.0004203745652115484,27000,,,,,,,,,,,,,,,,
,27049,0.19946947693824768,225,,,,,,,,,,,,,,
,27099,0.09944096952676773,225,,,,,,,,,,,,,,
,27119,,225,1.0761713981628418,19.384138107299805,5.272485733032227,1.373504638671875,12.738147735595703,,,,,,,,,
,27119,,225,,,,,,2.545795440673828,1.8331931829452515,0.4562307894229889,0.2563713788986206,,,,,
0.0004164056578471539,27120,,,,,,,,,,,,,,,,
,27149,0.0617779940366745,226,,,,,,,,,,,,,,
,27199,0.08236435800790787,226,,,,,,,,,,,,,,
,27239,,226,1.1268513202667236,19.82720375061035,5.427558898925781,1.3956578969955444,13.003987312316895,,,,,,,,,
,27239,,226,,,,,,2.5559940338134766,1.8107821941375732,0.5183484554290771,0.22686336934566498,,,,,
0.00041244220724410985,27240,,,,,,,,,,,,,,,,
,27249,0.13498494029045105,227,,,,,,,,,,,,,,
,27299,0.09517034888267517,227,,,,,,,,,,,,,,
,27349,0.15524984896183014,227,,,,,,,,,,,,,,
,27359,,227,1.0811803340911865,19.561365127563477,5.405405521392822,1.6836508512496948,12.472308158874512,,,,,,,,,
,27359,,227,,,,,,2.55084490776062,1.8261574506759644,0.49779292941093445,0.2268945723772049,,,,,
0.000408484470585046,27360,,,,,,,,,,,,,,,,
,27399,0.1900695562362671,228,,,,,,,,,,,,,,
,27449,0.122597336769104,228,,,,,,,,,,,,,,
,27479,,228,1.0930815935134888,19.384138107299805,6.2250776290893555,1.373504638671875,11.785555839538574,,,,,,,,,
,27479,,228,,,,,,2.5031580924987793,1.8234745264053345,0.476465106010437,0.20321854948997498,,,,,
0.00040453270468182226,27480,,,,,,,,,,,,,,,,
,27499,0.12848901748657227,229,,,,,,,,,,,,,,
,27549,0.23273959755897522,229,,,,,,,,,,,,,,
,27599,0.04546323046088219,229,,,,,,,,,,,,,,
,27599,,229,1.0873291492462158,19.140451431274414,5.006646156311035,1.7279574871063232,12.405848503112793,,,,,,,,,
,27599,,229,,,,,,2.4254708290100098,1.7649816274642944,0.47020214796066284,0.19028708338737488,,,,,
0.0004005871659588654,27600,,,,,,,,,,,,,,,,
,27649,0.168893963098526,230,,,,,,,,,,,,,,
,27699,0.21082305908203125,230,,,,,,,,,,,,,,
,27719,,230,1.0748461484909058,19.915817260742188,5.649091720581055,1.4842711687088013,12.782454490661621,,,,,,,,,
,27719,,230,,,,,,2.49550461769104,1.818780779838562,0.45847001671791077,0.2182537019252777,,,,,
0.00039664811043652883,27720,,,,,,,,,,,,,,,,
,27749,0.15115806460380554,231,,,,,,,,,,,,,,
,27799,0.27609825134277344,231,,,,,,,,,,,,,,
,27839,,231,1.0830003023147583,19.384138107299805,5.2946391105651855,1.5728843212127686,12.51661491394043,,,,,,,,,
,27839,,231,,,,,,2.520071029663086,1.817756175994873,0.5053912997245789,0.19692358374595642,,,,,
0.00039271579371448056,27840,,,,,,,,,,,,,,,,
,27849,0.09983344376087189,232,,,,,,,,,,,,,,
,27899,0.1623886525630951,232,,,,,,,,,,,,,,
,27949,0.1367679238319397,232,,,,,,,,,,,,,,
,27959,,232,1.0871682167053223,19.22906494140625,4.8515729904174805,1.5950376987457275,12.782454490661621,,,,,,,,,
,27959,,232,,,,,,2.427946090698242,1.8127013444900513,0.46246594190597534,0.15277892351150513,,,,,
0.0003887904709551172,27960,,,,,,,,,,,,,,,,
,27999,0.2798292934894562,233,,,,,,,,,,,,,,
,28049,0.24515368044376373,233,,,,,,,,,,,,,,
,28079,,233,1.144508719444275,19.29552459716797,5.028799057006836,1.5728843212127686,12.693840980529785,,,,,,,,,
,28079,,233,,,,,,2.4386212825775146,1.7735427618026733,0.46128636598587036,0.20379218459129333,,,,,
0.00038487239686700776,28080,,,,,,,,,,,,,,,,
,28099,0.13987158238887787,234,,,,,,,,,,,,,,
,28149,0.1688656508922577,234,,,,,,,,,,,,,,
,28199,0.2116883099079132,234,,,,,,,,,,,,,,
,28199,,234,1.1170437335968018,19.915817260742188,5.2946391105651855,1.4842711687088013,13.136907577514648,,,,,,,,,
,28199,,234,,,,,,2.437138319015503,1.7757279872894287,0.4515264928340912,0.20988386869430542,,,,,
0.00038096182568836466,28200,,,,,,,,,,,,,,,,
,28249,0.18279330432415009,235,,,,,,,,,,,,,,
,28299,0.12231628596782684,235,,,,,,,,,,,,,,
,28319,,235,1.1462838649749756,20.159503936767578,6.402304172515869,1.129818320274353,12.627381324768066,,,,,,,,,
,28319,,235,,,,,,2.43617582321167,1.810986876487732,0.472670316696167,0.1525186151266098,,,,,
0.00037705901117054784,28320,,,,,,,,,,,,,,,,
,28349,0.1428845375776291,236,,,,,,,,,,,,,,
,28399,0.11996881663799286,236,,,,,,,,,,,,,,
,28439,,236,1.0925183296203613,19.53921127319336,6.291537284851074,1.129818320274353,12.1178560256958,,,,,,,,,
,28439,,236,,,,,,2.5251827239990234,1.8669794797897339,0.46915966272354126,0.18904374539852142,,,,,
0.0003731642065615982,28440,,,,,,,,,,,,,,,,
,28449,0.1618531495332718,237,,,,,,,,,,,,,,
,28499,0.15898212790489197,237,,,,,,,,,,,,,,
,28549,0.09039867669343948,237,,,,,,,,,,,,,,
,28559,,237,1.106281042098999,20.02658462524414,5.715551853179932,1.5064244270324707,12.804608345031738,,,,,,,,,
,28559,,237,,,,,,2.45782732963562,1.762893557548523,0.5139470100402832,0.18098671734333038,,,,,
0.0003692776645898057,28560,,,,,,,,,,,,,,,,
,28599,0.2903551459312439,238,,,,,,,,,,,,,,
,28649,0.14531244337558746,238,,,,,,,,,,,,,,
,28679,,238,1.1092820167541504,19.47275161743164,5.250332355499268,1.5285778045654297,12.693840980529785,,,,,,,,,
,28679,,238,,,,,,2.44762921333313,1.8189055919647217,0.4763473570346832,0.15237624943256378,,,,,
0.0003653996374473089,28680,,,,,,,,,,,,,,,,
,28699,0.22791457176208496,239,,,,,,,,,,,,,,
,28749,0.10211801528930664,239,,,,,,,,,,,,,,
,28799,0.12157908827066422,239,,,,,,,,,,,,,,
,28799,,239,1.0994594097137451,19.53921127319336,4.984492778778076,1.6614975929260254,12.893220901489258,,,,,,,,,
,28799,,239,,,,,,2.8962576389312744,1.9840396642684937,0.5764997005462646,0.33571821451187134,,,,,
0.00036153037677373167,28800,,,,,,,,,,,,,,,,
,28849,0.17012733221054077,240,,,,,,,,,,,,,,
,28899,0.10693641006946564,240,,,,,,,,,,,,,,
,28919,,240,1.1217833757400513,18.98537826538086,4.319893836975098,1.7058041095733643,12.959680557250977,,,,,,,,,
,28919,,240,,,,,,2.4546616077423096,1.7929463386535645,0.4777529239654541,0.18396233022212982,,,,,
0.00035767013363985443,28920,,,,,,,,,,,,,,,,
,28949,0.14477041363716125,241,,,,,,,,,,,,,,
,28999,0.17662936449050903,241,,,,,,,,,,,,,,
,29039,,241,1.1071830987930298,19.738590240478516,6.1364641189575195,1.4178112745285034,12.18431568145752,,,,,,,,,
,29039,,241,,,,,,2.3468613624572754,1.6578240394592285,0.4823261797428131,0.20671121776103973,,,,,
0.00035381915853132225,29040,,,,,,,,,,,,,,,,
,29049,0.1712157279253006,242,,,,,,,,,,,,,,
,29099,0.10737431049346924,242,,,,,,,,,,,,,,
,29149,0.22533994913101196,242,,,,,,,,,,,,,,
,29159,,242,1.1359974145889282,19.960124969482422,6.025697708129883,1.5507310628890991,12.383695602416992,,,,,,,,,
,29159,,242,,,,,,2.4064722061157227,1.7652966976165771,0.48156964778900146,0.15960593521595,,,,,
0.00034997770133239105,29160,,,,,,,,,,,,,,,,
,29199,0.102170929312706,243,,,,,,,,,,,,,,
,29249,0.0753936618566513,243,,,,,,,,,,,,,,
,29279,,243,1.0657172203063965,18.298625946044922,5.16171932220459,1.3513513803482056,11.785555839538574,,,,,,,,,
,29279,,243,,,,,,2.308581829071045,1.7180143594741821,0.4377632737159729,0.1528041660785675,,,,,
0.00034614601130971356,29280,,,,,,,,,,,,,,,,
,29299,0.16088852286338806,244,,,,,,,,,,,,,,
,29349,0.12387403100728989,244,,,,,,,,,,,,,,
,29399,0.10050854831933975,244,,,,,,,,,,,,,,
,29399,,244,1.091360330581665,20.070890426635742,6.601683616638184,1.4621179103851318,12.007088661193848,,,,,,,,,
,29399,,244,,,,,,2.3021740913391113,1.7142385244369507,0.43647679686546326,0.15145882964134216,,,,,
0.00034232433709616427,29400,,,,,,,,,,,,,,,,
,29449,0.13292467594146729,245,,,,,,,,,,,,,,
,29499,0.19685098528862,245,,,,,,,,,,,,,,
,29519,,245,1.0413917303085327,19.007532119750977,6.756756782531738,1.2405848503112793,11.010190963745117,,,,,,,,,
,29519,,245,,,,,,2.2588346004486084,1.6875715255737305,0.4429357945919037,0.12832719087600708,,,,,
0.00033851292667470633,29520,,,,,,,,,,,,,,,,
,29549,0.0834600180387497,246,,,,,,,,,,,,,,
,29599,0.1749657541513443,246,,,,,,,,,,,,,,
,29639,,246,1.0743197202682495,19.16260528564453,5.250332355499268,1.6836508512496948,12.228622436523438,,,,,,,,,
,29639,,246,,,,,,2.2597010135650635,1.6440422534942627,0.46482929587364197,0.15082956850528717,,,,,
0.00033471202736229996,29640,,,,,,,,,,,,,,,,
,29649,0.11548630148172379,247,,,,,,,,,,,,,,
,29699,0.11501654982566833,247,,,,,,,,,,,,,,
,29749,0.12425962090492249,247,,,,,,,,,,,,,,
,29759,,247,1.0533524751663208,19.22906494140625,6.2029242515563965,1.3291980028152466,11.696943283081055,,,,,,,,,
,29759,,247,,,,,,2.2430343627929688,1.6489259004592896,0.4772121012210846,0.11689633131027222,,,,,
0.00033092188579385447,29760,,,,,,,,,,,,,,,,
,29799,0.1019250750541687,248,,,,,,,,,,,,,,
,29849,0.13481585681438446,248,,,,,,,,,,,,,,
,29879,,248,1.0730003118515015,19.22906494140625,5.737704753875732,1.3956578969955444,12.095702171325684,,,,,,,,,
,29879,,248,,,,,,2.336512804031372,1.7592567205429077,0.4631793200969696,0.11407680064439774,,,,,
0.00032714274790622506,29880,,,,,,,,,,,,,,,,
,29899,0.10287979245185852,249,,,,,,,,,,,,,,
,29949,0.2228582501411438,249,,,,,,,,,,,,,,
,29999,0.1388513743877411,249,,,,,,,,,,,,,,
,29999,,249,1.1049928665161133,19.605670928955078,5.671245098114014,1.617190957069397,12.317234992980957,,,,,,,,,
,29999,,249,,,,,,2.3405282497406006,1.7309150695800781,0.4716916084289551,0.1379215270280838,,,,,
0.00032337485892225333,30000,,,,,,,,,,,,,,,,
,30049,0.1598309874534607,250,,,,,,,,,,,,,,
,30099,0.12954643368721008,250,,,,,,,,,,,,,,
,30119,,250,1.0636698007583618,19.273372650146484,4.940186023712158,1.7501107454299927,12.583074569702148,,,,,,,,,
,30119,,250,,,,,,2.382721185684204,1.8035492897033691,0.42921996116638184,0.14995184540748596,,,,,
0.00031961846333485586,30120,,,,,,,,,,,,,,,,
,30149,0.20351524651050568,251,,,,,,,,,,,,,,
,30199,0.1579200178384781,251,,,,,,,,,,,,,,
,30239,,251,1.1033176183700562,19.915817260742188,5.759858131408691,1.7058041095733643,12.450155258178711,,,,,,,,,
,30239,,251,,,,,,2.3310728073120117,1.7489910125732422,0.4708821773529053,0.11119958013296127,,,,,
0.00031587380489115925,30240,,,,,,,,,,,,,,,,
,30249,0.17803460359573364,252,,,,,,,,,,,,,,
,30299,0.16251879930496216,252,,,,,,,,,,,,,,
,30349,0.09596719592809677,252,,,,,,,,,,,,,,
,30359,,252,1.081437349319458,19.805051803588867,5.804164886474609,1.3070447444915771,12.693840980529785,,,,,,,,,
,30359,,252,,,,,,2.2665820121765137,1.6775190830230713,0.45524775981903076,0.13381525874137878,,,,,
0.00031214112657668375,30360,,,,,,,,,,,,,,,,
,30399,0.12022209167480469,253,,,,,,,,,,,,,,
,30449,0.05993341654539108,253,,,,,,,,,,,,,,
,30479,,253,1.0945489406585693,20.2702693939209,6.2029242515563965,1.1076650619506836,12.959680557250977,,,,,,,,,
,30479,,253,,,,,,2.2813007831573486,1.6934218406677246,0.4254206120967865,0.1624583601951599,,,,,
0.0003084206705995759,30480,,,,,,,,,,,,,,,,
,30499,0.0516270250082016,254,,,,,,,,,,,,,,
,30549,0.09836829453706741,254,,,,,,,,,,,,,,
,30599,0.2522447109222412,254,,,,,,,,,,,,,,
,30599,,254,1.0881693363189697,19.051837921142578,5.383252143859863,1.6393442153930664,12.029242515563965,,,,,,,,,
,30599,,254,,,,,,2.236905574798584,1.7028013467788696,0.44325143098831177,0.0908527746796608,,,,,
0.0003047126783748924,30600,,,,,,,,,,,,,,,,
,30649,0.14058652520179749,255,,,,,,,,,,,,,,
,30699,0.06506392359733582,255,,,,,,,,,,,,,,
,30719,,255,1.1228588819503784,19.361984252929688,4.940186023712158,1.5728843212127686,12.84891414642334,,,,,,,,,
,30719,,255,,,,,,2.1672637462615967,1.6395701169967651,0.42022594809532166,0.10746762156486511,,,,,
0.00030101739050893486,30720,,,,,,,,,,,,,,,,
,30749,0.17697113752365112,256,,,,,,,,,,,,,,
,30799,0.09661361575126648,256,,,,,,,,,,,,,,
,30839,,256,1.1423896551132202,19.937971115112305,5.78201150894165,1.2848914861679077,12.871068000793457,,,,,,,,,
,30839,,256,,,,,,2.147150754928589,1.594200849533081,0.425028532743454,0.1279212087392807,,,,,
0.0002973350467836377,30840,,,,,,,,,,,,,,,,
,30849,0.06603895127773285,257,,,,,,,,,,,,,,
,30899,0.16942092776298523,257,,,,,,,,,,,,,,
,30949,0.1336827278137207,257,,,,,,,,,,,,,,
,30959,,257,1.0990904569625854,19.78289794921875,6.269383907318115,1.129818320274353,12.383695602416992,,,,,,,,,
,30959,,257,,,,,,2.2693140506744385,1.7167973518371582,0.45331165194511414,0.09920497983694077,,,,,
0.0002936658861410078,30960,,,,,,,,,,,,,,,,
,30999,0.13928651809692383,258,,,,,,,,,,,,,,
,31049,0.1360597014427185,258,,,,,,,,,,,,,,
,31079,,258,1.1277942657470703,19.58351707458496,6.025697708129883,1.3070447444915771,12.250775337219238,,,,,,,,,
,31079,,258,,,,,,2.3056745529174805,1.7202816009521484,0.46665745973587036,0.11873532831668854,,,,,
0.0002900101466676216,31080,,,,,,,,,,,,,,,,
,31099,0.07819351553916931,259,,,,,,,,,,,,,,
,31149,0.12868233025074005,259,,,,,,,,,,,,,,
,31199,0.20375528931617737,259,,,,,,,,,,,,,,
,31199,,259,1.1175847053527832,19.89366340637207,6.42445707321167,1.4399645328521729,12.029242515563965,,,,,,,,,
,31199,,259,,,,,,2.343006134033203,1.738626480102539,0.4650135934352875,0.13936609029769897,,,,,
0.0002863680655791744,31200,,,,,,,,,,,,,,,,
,31249,0.17670997977256775,260,,,,,,,,,,,,,,
,31299,0.0727163702249527,260,,,,,,,,,,,,,,
,31319,,260,1.1271098852157593,19.251218795776367,5.449711799621582,1.3956578969955444,12.405848503112793,,,,,,,,,
,31319,,260,,,,,,2.375499963760376,1.7919713258743286,0.4607532024383545,0.12277555465698242,,,,,
0.00028273987920508857,31320,,,,,,,,,,,,,,,,
,31349,0.08737128973007202,261,,,,,,,,,,,,,,
,31399,0.11471934616565704,261,,,,,,,,,,,,,,
,31439,,261,1.0989649295806885,18.67523193359375,4.89587926864624,1.2848914861679077,12.494462013244629,,,,,,,,,
,31439,,261,,,,,,2.3525829315185547,1.753366231918335,0.4732843339443207,0.12593238055706024,,,,,
0.0002791258229731789,31440,,,,,,,,,,,,,,,,
,31449,0.22339878976345062,262,,,,,,,,,,,,,,
,31499,0.20428933203220367,262,,,,,,,,,,,,,,
,31549,0.1853797435760498,262,,,,,,,,,,,,,,
,31559,,262,1.1230634450912476,19.960124969482422,5.560478687286377,1.5950376987457275,12.804608345031738,,,,,,,,,
,31559,,262,,,,,,2.2577545642852783,1.7169915437698364,0.4419434666633606,0.09881965070962906,,,,,
0.0002755261313943747,31560,,,,,,,,,,,,,,,,
,31599,0.122064508497715,263,,,,,,,,,,,,,,
,31649,0.08922121673822403,263,,,,,,,,,,,,,,
,31679,,263,1.0895938873291016,19.78289794921875,6.402304172515869,1.129818320274353,12.250775337219238,,,,,,,,,
,31679,,263,,,,,,2.1268985271453857,1.595861792564392,0.4264802932739258,0.10455646365880966,,,,,
0.00027194103804750443,31680,,,,,,,,,,,,,,,,
,31699,0.10909847915172577,264,,,,,,,,,,,,,,
,31749,0.1413150429725647,264,,,,,,,,,,,,,,
,31799,0.13273125886917114,264,,,,,,,,,,,,,,
,31799,,264,1.075561761856079,19.738590240478516,6.2029242515563965,1.2405848503112793,12.295082092285156,,,,,,,,,
,31799,,264,,,,,,2.2591445446014404,1.7389740943908691,0.43163079023361206,0.08853965252637863,,,,,
0.00026837077556413747,31800,,,,,,,,,,,,,,,,
,31849,0.12239575386047363,265,,,,,,,,,,,,,,
,31899,0.10521809756755829,265,,,,,,,,,,,,,,
,31919,,265,1.0877459049224854,20.979175567626953,7.864421844482422,1.3070447444915771,11.807709693908691,,,,,,,,,
,31919,,265,,,,,,2.248196601867676,1.7140260934829712,0.4377994239330292,0.09637094289064407,,,,,
0.0002648155756134901,31920,,,,,,,,,,,,,,,,
,31949,0.15005913376808167,266,,,,,,,,,,,,,,
,31999,0.12036462873220444,266,,,,,,,,,,,,,,
,32039,,266,1.0635054111480713,19.206911087036133,5.316792011260986,1.2405848503112793,12.649535179138184,,,,,,,,,
,32039,,266,,,,,,2.267401695251465,1.684355616569519,0.45210200548171997,0.1309441775083542,,,,,
0.00026127566888739214,32040,,,,,,,,,,,,,,,,
,32049,0.07427562773227692,267,,,,,,,,,,,,,,
,32099,0.15692353248596191,267,,,,,,,,,,,,,,
,32149,0.15666256844997406,267,,,,,,,,,,,,,,
,32159,,267,1.1344232559204102,19.871511459350586,5.914931297302246,1.7501107454299927,12.20646858215332,,,,,,,,,
,32159,,267,,,,,,2.2056496143341064,1.6497653722763062,0.44993603229522705,0.10594823956489563,,,,,
0.00025775128508531806,32160,,,,,,,,,,,,,,,,
,32199,0.10616707801818848,268,,,,,,,,,,,,,,
,32249,0.17521724104881287,268,,,,,,,,,,,,,,
,32279,,268,1.092508316040039,20.004430770874023,6.402304172515869,1.4842711687088013,12.1178560256958,,,,,,,,,
,32279,,268,,,,,,2.1840078830718994,1.664530873298645,0.42853403091430664,0.09094291180372238,,,,,
0.0002542426528994826,32280,,,,,,,,,,,,,,,,
,32299,0.07302955538034439,269,,,,,,,,,,,,,,
,32349,0.13286149501800537,269,,,,,,,,,,,,,,
,32399,0.05804990231990814,269,,,,,,,,,,,,,,
,32399,,269,1.0874656438827515,19.960124969482422,6.114311218261719,1.4178112745285034,12.428001403808594,,,,,,,,,
,32399,,269,,,,,,2.1476528644561768,1.6207143068313599,0.45952340960502625,0.06741511076688766,,,,,
0.00025074999999999994,32400,,,,,,,,,,,,,,,,
,32449,0.15704649686813354,270,,,,,,,,,,,,,,
,32499,0.11036278307437897,270,,,,,,,,,,,,,,
,32519,,270,1.129901647567749,20.048736572265625,5.671245098114014,1.5728843212127686,12.804608345031738,,,,,,,,,
,32519,,270,,,,,,2.164978265762329,1.6398850679397583,0.4302464723587036,0.09484666585922241,,,,,
0.0002472735530201116,32520,,,,,,,,,,,,,,,,
,32549,0.10880617797374725,271,,,,,,,,,,,,,,
,32599,0.08351625502109528,271,,,,,,,,,,,,,,
,32639,,271,1.127039909362793,19.78289794921875,5.361098766326904,1.5064244270324707,12.915374755859375,,,,,,,,,
,32639,,271,,,,,,2.111231803894043,1.6198956966400146,0.40738242864608765,0.08395381271839142,,,,,
0.0002438135375414799,32640,,,,,,,,,,,,,,,,
,32649,0.10763445496559143,272,,,,,,,,,,,,,,
,32699,0.07692579925060272,272,,,,,,,,,,,,,,
,32749,0.21400552988052368,272,,,,,,,,,,,,,,
,32759,,272,1.1516698598861694,19.71643829345703,6.446610450744629,1.373504638671875,11.896322250366211,,,,,,,,,
,32759,,272,,,,,,2.0651190280914307,1.566311240196228,0.40288323163986206,0.09592457860708237,,,,,
0.00024037017807955133,32760,,,,,,,,,,,,,,,,
,32799,0.0889405608177185,273,,,,,,,,,,,,,,
,32849,0.08704960346221924,273,,,,,,,,,,,,,,
,32879,,273,1.0824376344680786,18.74169158935547,5.20602560043335,1.5950376987457275,11.940629005432129,,,,,,,,,
,32879,,273,,,,,,2.1372158527374268,1.645491361618042,0.40381842851638794,0.08790604770183563,,,,,
0.00023694369806898644,32880,,,,,,,,,,,,,,,,
,32899,0.16097238659858704,274,,,,,,,,,,,,,,
,32949,0.2554699182510376,274,,,,,,,,,,,,,,
,32999,0.2618657946586609,274,,,,,,,,,,,,,,
,32999,,274,1.0508135557174683,19.47275161743164,5.937084674835205,1.373504638671875,12.162161827087402,,,,,,,,,
,32999,,274,,,,,,2.156003713607788,1.5980602502822876,0.46839699149131775,0.08954647928476334,,,,,
0.00023353431984916316,33000,,,,,,,,,,,,,,,,
,33049,0.1340864896774292,275,,,,,,,,,,,,,,
,33099,0.12456384301185608,275,,,,,,,,,,,,,,
,33119,,275,1.1387977600097656,19.273372650146484,5.361098766326904,1.4842711687088013,12.428001403808594,,,,,,,,,
,33119,,275,,,,,,2.146341562271118,1.6310546398162842,0.42734456062316895,0.08794228732585907,,,,,
0.00023014226464974815,33120,,,,,,,,,,,,,,,,
,33149,0.09440368413925171,276,,,,,,,,,,,,,,
,33199,0.15690404176712036,276,,,,,,,,,,,,,,
,33239,,276,1.1046857833862305,19.760744094848633,6.42445707321167,1.129818320274353,12.20646858215332,,,,,,,,,
,33239,,276,,,,,,2.1390743255615234,1.6080886125564575,0.44019532203674316,0.0907902866601944,,,,,
0.0002267677525763423,33240,,,,,,,,,,,,,,,,
,33249,0.1650359183549881,277,,,,,,,,,,,,,,
,33299,0.08441860973834991,277,,,,,,,,,,,,,,
,33349,0.1435932219028473,277,,,,,,,,,,,,,,
,33359,,277,1.1097204685211182,19.760744094848633,6.357997417449951,1.5285778045654297,11.87416934967041,,,,,,,,,
,33359,,277,,,,,,2.187138795852661,1.6930022239685059,0.41292738914489746,0.08120904862880707,,,,,
0.00022341100259619796,33360,,,,,,,,,,,,,,,,
,33399,0.12888526916503906,278,,,,,,,,,,,,,,
,33449,0.13707390427589417,278,,,,,,,,,,,,,,
,33479,,278,1.0759031772613525,19.428443908691406,6.003544330596924,1.3956578969955444,12.029242515563965,,,,,,,,,
,33479,,278,,,,,,2.161062479019165,1.6579142808914185,0.4151659309864044,0.0879821851849556,,,,,
0.0002200722325240113,33480,,,,,,,,,,,,,,,,
,33499,0.14501799643039703,279,,,,,,,,,,,,,,
,33549,0.20998641848564148,279,,,,,,,,,,,,,,
,33599,0.1212925836443901,279,,,,,,,,,,,,,,
,33599,,279,1.1235295534133911,19.428443908691406,5.427558898925781,1.7501107454299927,12.250775337219238,,,,,,,,,
,33599,,279,,,,,,2.0351603031158447,1.5622199773788452,0.40261977910995483,0.07032057642936707,,,,,
0.00021675165900778758,33600,,,,,,,,,,,,,,,,
,33649,0.08953984826803207,280,,,,,,,,,,,,,,
,33699,0.0836746096611023,280,,,,,,,,,,,,,,
,33719,,280,1.0949311256408691,20.40319061279297,6.933983325958252,1.4178112745285034,12.051395416259766,,,,,,,,,
,33719,,280,,,,,,2.053929328918457,1.5267175436019897,0.4503267705440521,0.07688505947589874,,,,,
0.00021344949751478362,33720,,,,,,,,,,,,,,,,
,33749,0.11042208969593048,281,,,,,,,,,,,,,,
,33799,0.07677924633026123,281,,,,,,,,,,,,,,
,33839,,281,1.1125551462173462,19.84935760498047,6.557376861572266,1.4399645328521729,11.852015495300293,,,,,,,,,
,33839,,281,,,,,,2.0406758785247803,1.5411713123321533,0.4128137528896332,0.08669088780879974,,,,,
0.00021016596231752634,33840,,,,,,,,,,,,,,,,
,33849,0.15644820034503937,282,,,,,,,,,,,,,,
,33899,0.09924989938735962,282,,,,,,,,,,,,,,
,33949,0.09129606932401657,282,,,,,,,,,,,,,,
,33959,,282,1.1323378086090088,19.406291961669922,5.914931297302246,1.373504638671875,12.1178560256958,,,,,,,,,
,33959,,282,,,,,,2.1203839778900146,1.6205006837844849,0.3872722089290619,0.1126110628247261,,,,,
0.00020690126647990957,33960,,,,,,,,,,,,,,,,
,33999,0.11787339299917221,283,,,,,,,,,,,,,,
,34049,0.11150427162647247,283,,,,,,,,,,,,,,
,34079,,283,1.1334054470062256,20.536109924316406,7.332742691040039,1.1962782144546509,12.007088661193848,,,,,,,,,
,34079,,283,,,,,,2.1833581924438477,1.652937889099121,0.44544345140457153,0.08497690409421921,,,,,
0.0002036556218433675,34080,,,,,,,,,,,,,,,,
,34099,0.10953222215175629,284,,,,,,,,,,,,,,
,34149,0.0852968692779541,284,,,,,,,,,,,,,,
,34199,0.1271151751279831,284,,,,,,,,,,,,,,
,34199,,284,1.1000478267669678,19.58351707458496,6.468763828277588,1.2184315919876099,11.896322250366211,,,,,,,,,
,34199,,284,,,,,,1.973494052886963,1.476680040359497,0.43626055121421814,0.06055351346731186,,,,,
0.0002004292390131293,34200,,,,,,,,,,,,,,,,
,34249,0.11861922591924667,285,,,,,,,,,,,,,,
,34299,0.08039073646068573,285,,,,,,,,,,,,,,
,34319,,285,1.0862921476364136,19.16260528564453,5.538325309753418,1.5064244270324707,12.1178560256958,,,,,,,,,
,34319,,285,,,,,,1.9862711429595947,1.5272647142410278,0.3887081742286682,0.07029828429222107,,,,,
0.00019722232734455358,34320,,,,,,,,,,,,,,,,
,34349,0.11199456453323364,286,,,,,,,,,,,,,,
,34399,0.1208219826221466,286,,,,,,,,,,,,,,
,34439,,286,1.13814377784729,19.406291961669922,5.78201150894165,1.4399645328521729,12.18431568145752,,,,,,,,,
,34439,,286,,,,,,2.16561222076416,1.6776256561279297,0.4135478138923645,0.07443860918283463,,,,,
0.00019403509492954261,34440,,,,,,,,,,,,,,,,
,34449,0.16206276416778564,287,,,,,,,,,,,,,,
,34499,0.09381971508264542,287,,,,,,,,,,,,,,
,34549,0.14272931218147278,287,,,,,,,,,,,,,,
,34559,,287,1.125558853149414,19.494905471801758,5.959238052368164,1.3070447444915771,12.228622436523438,,,,,,,,,
,34559,,287,,,,,,2.1007189750671387,1.6044104099273682,0.41931891441345215,0.07698970288038254,,,,,
0.00019086774858304036,34560,,,,,,,,,,,,,,,,
,34599,0.12087957561016083,288,,,,,,,,,,,,,,
,34649,0.09623630344867706,288,,,,,,,,,,,,,,
,34679,,288,1.0943739414215088,19.53921127319336,5.804164886474609,1.4842711687088013,12.250775337219238,,,,,,,,,
,34679,,288,,,,,,2.1224398612976074,1.6290415525436401,0.4368918538093567,0.05650651827454567,,,,,
0.0001877204938296121,34680,,,,,,,,,,,,,,,,
,34699,0.13310877978801727,289,,,,,,,,,,,,,,
,34749,0.11764978617429733,289,,,,,,,,,,,,,,
,34799,0.07903928309679031,289,,,,,,,,,,,,,,
,34799,,289,1.0638563632965088,18.785999298095703,5.604784965515137,1.5728843212127686,11.608329772949219,,,,,,,,,
,34799,,289,,,,,,2.0113162994384766,1.5198447704315186,0.41437795758247375,0.07709357142448425,,,,,
0.00018459353489010892,34800,,,,,,,,,,,,,,,,
,34849,0.15836456418037415,290,,,,,,,,,,,,,,
,34899,0.11284225434064865,290,,,,,,,,,,,,,,
,34919,,290,1.079656720161438,19.140451431274414,5.715551853179932,1.5728843212127686,11.852015495300293,,,,,,,,,
,34919,,290,,,,,,2.1151068210601807,1.59251868724823,0.4579522907733917,0.06463591009378433,,,,,
0.0001814870746684151,34920,,,,,,,,,,,,,,,,
,34949,0.12809064984321594,291,,,,,,,,,,,,,,
,34999,0.07337082922458649,291,,,,,,,,,,,,,,
,35039,,291,1.0742393732070923,19.096145629882812,5.338945388793945,1.5950376987457275,12.162161827087402,,,,,,,,,
,35039,,291,,,,,,2.103163719177246,1.6176066398620605,0.4277854263782501,0.05777166411280632,,,,,
0.0001784013147382827,35040,,,,,,,,,,,,,,,,
,35049,0.07473894953727722,292,,,,,,,,,,,,,,
,35099,0.10794956982135773,292,,,,,,,,,,,,,,
,35149,0.10402066260576248,292,,,,,,,,,,,,,,
,35159,,292,1.095018982887268,19.317678451538086,6.003544330596924,1.5064244270324707,11.807709693908691,,,,,,,,,
,35159,,292,,,,,,2.0817854404449463,1.5768183469772339,0.4210352599620819,0.08393186330795288,,,,,
0.00017533645533025137,35160,,,,,,,,,,,,,,,,
,35199,0.19941864907741547,293,,,,,,,,,,,,,,
,35249,0.14428600668907166,293,,,,,,,,,,,,,,
,35279,,293,1.09658944606781,20.048736572265625,7.199822902679443,1.2848914861679077,11.5640230178833,,,,,,,,,
,35279,,293,,,,,,2.0203680992126465,1.5831242799758911,0.40023574233055115,0.037008099257946014,,,,,
0.00017229269531865633,35280,,,,,,,,,,,,,,,,
,35299,0.08510495722293854,294,,,,,,,,,,,,,,
,35349,0.07573500275611877,294,,,,,,,,,,,,,,
,35399,0.09999705106019974,294,,,,,,,,,,,,,,
,35399,,294,1.0951695442199707,19.140451431274414,5.626938343048096,1.6836508512496948,11.829862594604492,,,,,,,,,
,35399,,294,,,,,,2.0871119499206543,1.6103324890136719,0.4108271598815918,0.06595218181610107,,,,,
0.0001692702322087225,35400,,,,,,,,,,,,,,,,
,35449,0.13132409751415253,295,,,,,,,,,,,,,,
,35499,0.1349615752696991,295,,,,,,,,,,,,,,
,35519,,295,1.1105552911758423,19.561365127563477,5.937084674835205,1.3291980028152466,12.295082092285156,,,,,,,,,
,35519,,295,,,,,,2.1572835445404053,1.6055803298950195,0.4512684941291809,0.10043475776910782,,,,,
0.00016626926212375014,35520,,,,,,,,,,,,,,,,
,35549,0.07136800140142441,296,,,,,,,,,,,,,,
,35599,0.12318986654281616,296,,,,,,,,,,,,,,
,35639,,296,1.076256275177002,19.206911087036133,5.737704753875732,1.373504638671875,12.095702171325684,,,,,,,,,
,35639,,296,,,,,,2.1274254322052,1.6416678428649902,0.41420117020606995,0.07155635207891464,,,,,
0.0001632899797923872,35640,,,,,,,,,,,,,,,,
,35649,0.06859760731458664,297,,,,,,,,,,,,,,
,35699,0.10879011452198029,297,,,,,,,,,,,,,,
,35749,0.111220583319664,297,,,,,,,,,,,,,,
,35759,,297,1.1098085641860962,19.18475914001465,5.78201150894165,1.3513513803482056,12.051395416259766,,,,,,,,,
,35759,,297,,,,,,2.0109188556671143,1.5184768438339233,0.4238566756248474,0.06858522444963455,,,,,
0.00016033257853599473,35760,,,,,,,,,,,,,,,,
,35799,0.12354780733585358,298,,,,,,,,,,,,,,
,35849,0.0778491348028183,298,,,,,,,,,,,,,,
,35879,,298,1.0975794792175293,19.406291961669922,6.003544330596924,1.3291980028152466,12.073549270629883,,,,,,,,,
,35879,,298,,,,,,2.1004879474639893,1.6152312755584717,0.4371434450149536,0.048113271594047546,,,,,
0.0001573972502561022,35880,,,,,,,,,,,,,,,,
,35899,0.2475295215845108,299,,,,,,,,,,,,,,
,35949,0.09872087091207504,299,,,,,,,,,,,,,,
,35999,0.11348085105419159,299,,,,,,,,,,,,,,
,35999,,299,1.099976658821106,18.785999298095703,5.892777919769287,1.373504638671875,11.519716262817383,,,,,,,,,
,35999,,299,,,,,,1.9871565103530884,1.4979467391967773,0.4340875744819641,0.05512223392724991,,,,,
0.00015448418542195498,36000,,,,,,,,,,,,,,,,
,36049,0.09588176012039185,300,,,,,,,,,,,,,,
,36099,0.10243532061576843,300,,,,,,,,,,,,,,
,36119,,300,1.1183432340621948,19.517057418823242,6.38015079498291,1.2848914861679077,11.852015495300293,,,,,,,,,
,36119,,300,,,,,,2.038540840148926,1.5691672563552856,0.41431522369384766,0.055058497935533524,,,,,
0.00015159357305815586,36120,,,,,,,,,,,,,,,,
,36149,0.0821646898984909,301,,,,,,,,,,,,,,
,36199,0.11516956984996796,301,,,,,,,,,,,,,,
,36239,,301,1.1254143714904785,18.87461280822754,5.405405521392822,1.6614975929260254,11.807709693908691,,,,,,,,,
,36239,,301,,,,,,1.9240554571151733,1.4509496688842773,0.39883923530578613,0.07426661998033524,,,,,
0.00014872560073239866,36240,,,,,,,,,,,,,,,,
,36249,0.11049893498420715,302,,,,,,,,,,,,,,
,36299,0.07033467292785645,302,,,,,,,,,,,,,,
,36349,0.1647440791130066,302,,,,,,,,,,,,,,
,36359,,302,1.072184681892395,19.096145629882812,6.313690662384033,1.1962782144546509,11.586175918579102,,,,,,,,,
,36359,,302,,,,,,2.0918374061584473,1.5860581398010254,0.44118252396583557,0.06459681689739227,,,,,
0.00014588045454329754,36360,,,,,,,,,,,,,,,,
,36399,0.08169370889663696,303,,,,,,,,,,,,,,
,36449,0.2825571894645691,303,,,,,,,,,,,,,,
,36479,,303,1.0715382099151611,19.18475914001465,5.959238052368164,1.3956578969955444,11.829862594604492,,,,,,,,,
,36479,,303,,,,,,2.0016818046569824,1.5371041297912598,0.40392065048217773,0.06065702438354492,,,,,
0.00014305831910831144,36480,,,,,,,,,,,,,,,,
,36499,0.09376107156276703,304,,,,,,,,,,,,,,
,36549,0.06687162816524506,304,,,,,,,,,,,,,,
,36599,0.13421595096588135,304,,,,,,,,,,,,,,
,36599,,304,1.0858358144760132,18.963226318359375,5.649091720581055,1.2627381086349487,12.051395416259766,,,,,,,,,
,36599,,304,,,,,,1.9283367395401,1.4926398992538452,0.38896602392196655,0.046730898320674896,,,,,
0.00014025937755176456,36600,,,,,,,,,,,,,,,,
,36649,0.11694024503231049,305,,,,,,,,,,,,,,
,36699,0.14619743824005127,305,,,,,,,,,,,,,,
,36719,,305,1.0773072242736816,19.317678451538086,6.402304172515869,1.1962782144546509,11.719096183776855,,,,,,,,,
,36719,,305,,,,,,1.9988994598388672,1.5435410737991333,0.4182143211364746,0.03714403510093689,,,,,
0.0001374838114929633,36720,,,,,,,,,,,,,,,,
,36749,0.08591459691524506,306,,,,,,,,,,,,,,
,36799,0.12979388236999512,306,,,,,,,,,,,,,,
,36839,,306,1.125245213508606,18.697385787963867,5.538325309753418,1.0412051677703857,12.1178560256958,,,,,,,,,
,36839,,306,,,,,,2.0318105220794678,1.5410417318344116,0.4316566586494446,0.05911221727728844,,,,,
0.00013473180103441197,36840,,,,,,,,,,,,,,,,
,36849,0.11740805208683014,307,,,,,,,,,,,,,,
,36899,0.06597941368818283,307,,,,,,,,,,,,,,
,36949,0.10629646480083466,307,,,,,,,,,,,,,,
,36959,,307,1.1178044080734253,18.87461280822754,5.737704753875732,1.3291980028152466,11.807709693908691,,,,,,,,,
,36959,,307,,,,,,1.9319226741790771,1.4952834844589233,0.3940737843513489,0.04256546124815941,,,,,
0.00013200352475012527,36960,,,,,,,,,,,,,,,,
,36999,0.1403055489063263,308,,,,,,,,,,,,,,
,37049,0.11604776978492737,308,,,,,,,,,,,,,,
,37079,,308,1.1046113967895508,20.248117446899414,7.377048969268799,1.1076650619506836,11.763402938842773,,,,,,,,,
,37079,,308,,,,,,2.0024514198303223,1.4860007762908936,0.4393273890018463,0.07712329924106598,,,,,
0.00012929915967404155,37080,,,,,,,,,,,,,,,,
,37099,0.13616123795509338,309,,,,,,,,,,,,,,
,37149,0.1064140573143959,309,,,,,,,,,,,,,,
,37199,0.10112285614013672,309,,,,,,,,,,,,,,
,37199,,309,1.0972861051559448,19.273372650146484,6.291537284851074,1.3070447444915771,11.674789428710938,,,,,,,,,
,37199,,309,,,,,,2.0184671878814697,1.5760257244110107,0.3902278244495392,0.052213579416275024,,,,,
0.00012661888128853482,37200,,,,,,,,,,,,,,,,
,37249,0.20192508399486542,310,,,,,,,,,,,,,,
,37299,0.07261722534894943,310,,,,,,,,,,,,,,
,37319,,310,1.0905853509902954,18.785999298095703,6.114311218261719,1.4621179103851318,11.209569931030273,,,,,,,,,
,37319,,310,,,,,,1.9166563749313354,1.4605058431625366,0.4163060188293457,0.03984446823596954,,,,,
0.00012396286351302896,37320,,,,,,,,,,,,,,,,
,37349,0.08385847508907318,311,,,,,,,,,,,,,,
,37399,0.15275338292121887,311,,,,,,,,,,,,,,
,37439,,311,1.1036337614059448,18.91891860961914,5.804164886474609,1.4842711687088013,11.63048267364502,,,,,,,,,
,37439,,311,,,,,,1.939860224723816,1.497290849685669,0.39707159996032715,0.04549778625369072,,,,,
0.00012133127869271103,37440,,,,,,,,,,,,,,,,
,37449,0.14087848365306854,312,,,,,,,,,,,,,,
,37499,0.14207714796066284,312,,,,,,,,,,,,,,
,37549,0.11177745461463928,312,,,,,,,,,,,,,,
,37559,,312,1.0870085954666138,18.963226318359375,6.1807708740234375,1.3291980028152466,11.453256607055664,,,,,,,,,
,37559,,312,,,,,,1.9046436548233032,1.472961187362671,0.3916863203048706,0.03999613970518112,,,,,
0.00011872429758734878,37560,,,,,,,,,,,,,,,,
,37599,0.12828975915908813,313,,,,,,,,,,,,,,
,37649,0.08731015771627426,313,,,,,,,,,,,,,,
,37679,,313,1.0798192024230957,19.007532119750977,5.383252143859863,1.7279574871063232,11.896322250366211,,,,,,,,,
,37679,,313,,,,,,1.9611095190048218,1.5160938501358032,0.3897342383861542,0.05528145283460617,,,,,
0.00011614208936021015,37680,,,,,,,,,,,,,,,,
,37699,0.12562960386276245,314,,,,,,,,,,,,,,
,37749,0.10488934814929962,314,,,,,,,,,,,,,,
,37799,0.06787962466478348,314,,,,,,,,,,,,,,
,37799,,314,1.0899039506912231,18.387239456176758,6.070004463195801,1.373504638671875,10.943730354309082,,,,,,,,,
,37799,,314,,,,,,1.949414610862732,1.4993373155593872,0.40727853775024414,0.042798761278390884,,,,,
0.00011358482156708647,37800,,,,,,,,,,,,,,,,
,37849,0.12854966521263123,315,,,,,,,,,,,,,,
,37899,0.09034609794616699,315,,,,,,,,,,,,,,
,37919,,315,1.0966929197311401,18.785999298095703,6.579530239105225,1.373504638671875,10.832963943481445,,,,,,,,,
,37919,,315,,,,,,1.8730660676956177,1.4288661479949951,0.3850649893283844,0.05913497880101204,,,,,
0.00011105266014542024,37920,,,,,,,,,,,,,,,,
,37949,0.09320904314517975,316,,,,,,,,,,,,,,
,37999,0.06712988018989563,316,,,,,,,,,,,,,,
,38039,,316,1.0841416120529175,18.653079986572266,5.981391429901123,1.3513513803482056,11.32033634185791,,,,,,,,,
,38039,,316,,,,,,1.9041067361831665,1.4968700408935547,0.3879755139350891,0.0192611962556839,,,,,
0.00010854576940353754,38040,,,,,,,,,,,,,,,,
,38049,0.1839023381471634,317,,,,,,,,,,,,,,
,38099,0.0797610878944397,317,,,,,,,,,,,,,,
,38149,0.1269923746585846,317,,,,,,,,,,,,,,
,38159,,317,1.0891597270965576,19.073991775512695,6.490917205810547,1.2405848503112793,11.342490196228027,,,,,,,,,
,38159,,317,,,,,,1.9572563171386719,1.510864496231079,0.38870424032211304,0.05768755450844765,,,,,
0.00010606431200998594,38160,,,,,,,,,,,,,,,,
,38199,0.18681970238685608,318,,,,,,,,,,,,,,
,38249,0.1106531023979187,318,,,,,,,,,,,,,,
,38279,,318,1.0952551364898682,18.80815315246582,6.025697708129883,1.2627381086349487,11.519716262817383,,,,,,,,,
,38279,,318,,,,,,2.0037007331848145,1.5507622957229614,0.4156540036201477,0.03728457912802696,,,,,
0.00010360844898297969,38280,,,,,,,,,,,,,,,,
,38299,0.17393413186073303,319,,,,,,,,,,,,,,
,38349,0.07901421934366226,319,,,,,,,,,,,,,,
,38399,0.11197349429130554,319,,,,,,,,,,,,,,
,38399,,319,1.07384192943573,19.11829948425293,6.42445707321167,1.2184315919876099,11.475409507751465,,,,,,,,,
,38399,,319,,,,,,2.033534049987793,1.5499497652053833,0.44363003969192505,0.03995425999164581,,,,,
0.00010117833967995116,38400,,,,,,,,,,,,,,,,
,38449,0.19250547885894775,320,,,,,,,,,,,,,,
,38499,0.12199504673480988,320,,,,,,,,,,,,,,
,38519,,320,1.0792365074157715,18.67523193359375,6.047851085662842,1.3070447444915771,11.32033634185791,,,,,,,,,
,38519,,320,,,,,,1.8938665390014648,1.4461504220962524,0.40788859128952026,0.039827506989240646,,,,,
9.877414178721044e-05,38520,,,,,,,,,,,,,,,,
,38549,0.08737077564001083,321,,,,,,,,,,,,,,
,38599,0.08595588803291321,321,,,,,,,,,,,,,,
,38639,,321,1.0830305814743042,19.273372650146484,6.557376861572266,1.1741249561309814,11.5418701171875,,,,,,,,,
,38639,,321,,,,,,1.933754801750183,1.4527212381362915,0.4233095049858093,0.05772402510046959,,,,,
9.63960113097137e-05,38640,,,,,,,,,,,,,,,,
,38649,0.13885006308555603,322,,,,,,,,,,,,,,
,38699,0.0566457100212574,322,,,,,,,,,,,,,,
,38749,0.3487578332424164,322,,,,,,,,,,,,,,
,38759,,322,1.085780382156372,18.963226318359375,5.804164886474609,1.3070447444915771,11.852015495300293,,,,,,,,,
,38759,,322,,,,,,1.9254854917526245,1.4809309244155884,0.40188831090927124,0.042666226625442505,,,,,
9.40441025609395e-05,38760,,,,,,,,,,,,,,,,
,38799,0.08294360339641571,323,,,,,,,,,,,,,,
,38849,0.15053129196166992,323,,,,,,,,,,,,,,
,38879,,323,1.0719070434570312,19.073991775512695,6.269383907318115,1.3513513803482056,11.453256607055664,,,,,,,,,
,38879,,323,,,,,,1.9225751161575317,1.4748897552490234,0.41335365176200867,0.03433169797062874,,,,,
9.171856815287612e-05,38880,,,,,,,,,,,,,,,,
,38899,0.08220021426677704,324,,,,,,,,,,,,,,
,38949,0.10922278463840485,324,,,,,,,,,,,,,,
,38999,0.18287800252437592,324,,,,,,,,,,,,,,
,38999,,324,1.0629854202270508,18.963226318359375,6.801063537597656,1.0190517902374268,11.143110275268555,,,,,,,,,
,38999,,324,,,,,,1.913974404335022,1.457152247428894,0.425174742937088,0.03164730966091156,,,,,
8.941955898611855e-05,39000,,,,,,,,,,,,,,,,
,39049,0.10637400299310684,325,,,,,,,,,,,,,,
,39099,0.2003055214881897,325,,,,,,,,,,,,,,
,39119,,325,1.0744249820709229,18.852458953857422,5.759858131408691,1.373504638671875,11.719096183776855,,,,,,,,,
,39119,,325,,,,,,1.8585830926895142,1.419655680656433,0.40737947821617126,0.0315479040145874,,,,,
8.714722424007724e-05,39120,,,,,,,,,,,,,,,,
,39149,0.1338498741388321,326,,,,,,,,,,,,,,
,39199,0.14501112699508667,326,,,,,,,,,,,,,,
,39239,,326,1.07065749168396,18.852458953857422,5.848471641540527,1.4178112745285034,11.586175918579102,,,,,,,,,
,39239,,326,,,,,,1.9499526023864746,1.4951010942459106,0.4136263132095337,0.041225213557481766,,,,,
8.490171136329733e-05,39240,,,,,,,,,,,,,,,,
,39249,0.11987175047397614,327,,,,,,,,,,,,,,
,39299,0.12631526589393616,327,,,,,,,,,,,,,,
,39349,0.20823894441127777,327,,,,,,,,,,,,,,
,39359,,327,1.0653932094573975,18.80815315246582,6.291537284851074,1.2405848503112793,11.276030540466309,,,,,,,,,
,39359,,327,,,,,,2.038069486618042,1.5724997520446777,0.43260911107063293,0.032960694283246994,,,,,
8.268316606389164e-05,39360,,,,,,,,,,,,,,,,
,39399,0.10079468786716461,328,,,,,,,,,,,,,,
,39449,0.10742084681987762,328,,,,,,,,,,,,,,
,39479,,328,1.0996317863464355,19.22906494140625,6.446610450744629,1.2627381086349487,11.519716262817383,,,,,,,,,
,39479,,328,,,,,,1.8726694583892822,1.44062077999115,0.3907701075077057,0.04127853363752365,,,,,
8.049173230008518e-05,39480,,,,,,,,,,,,,,,,
,39499,0.06398828327655792,329,,,,,,,,,,,,,,
,39549,0.10182495415210724,329,,,,,,,,,,,,,,
,39599,0.19138386845588684,329,,,,,,,,,,,,,,
,39599,,329,1.0888752937316895,18.785999298095703,6.313690662384033,1.0855116844177246,11.386796951293945,,,,,,,,,
,39599,,329,,,,,,1.8354823589324951,1.3872991800308228,0.41784459352493286,0.030338549986481667,,,,,
7.83275522708745e-05,39600,,,,,,,,,,,,,,,,
,39649,0.08760976791381836,330,,,,,,,,,,,,,,
,39699,0.12837857007980347,330,,,,,,,,,,,,,,
,39719,,330,1.096408724784851,18.91891860961914,6.38015079498291,1.2848914861679077,11.253876686096191,,,,,,,,,
,39719,,330,,,,,,1.9221230745315552,1.4688050746917725,0.4119819104671478,0.041335977613925934,,,,,
7.619076640680023e-05,39720,,,,,,,,,,,,,,,,
,39749,0.14819441735744476,331,,,,,,,,,,,,,,
,39799,0.09710699319839478,331,,,,,,,,,,,,,,
,39839,,331,1.0992701053619385,18.896764755249023,6.402304172515869,1.2848914861679077,11.209569931030273,,,,,,,,,
,39839,,331,,,,,,1.8947687149047852,1.4665179252624512,0.4048415720462799,0.023409206420183182,,,,,
7.408151336083493e-05,39840,,,,,,,,,,,,,,,,
,39849,0.14950521290302277,332,,,,,,,,,,,,,,
,39899,0.07261434942483902,332,,,,,,,,,,,,,,
,39949,0.24210038781166077,332,,,,,,,,,,,,,,
,39959,,332,1.1014735698699951,18.520158767700195,5.538325309753418,1.5507310628890991,11.431103706359863,,,,,,,,,
,39959,,332,,,,,,1.8822201490402222,1.4595123529434204,0.38277775049209595,0.03993005305528641,,,,,
7.199992999938623e-05,39960,,,,,,,,,,,,,,,,
,39999,0.16237768530845642,333,,,,,,,,,,,,,,
,40049,0.07430406659841537,333,,,,,,,,,,,,,,
,40079,,333,1.1055057048797607,18.963226318359375,5.959238052368164,1.2405848503112793,11.763402938842773,,,,,,,,,
,40079,,333,,,,,,1.9273985624313354,1.4944921731948853,0.40257537364959717,0.030331021174788475,,,,,
6.994615139341539e-05,40080,,,,,,,,,,,,,,,,
,40099,0.0756031796336174,334,,,,,,,,,,,,,,
,40149,0.11354236304759979,334,,,,,,,,,,,,,,
,40199,0.12821751832962036,334,,,,,,,,,,,,,,
,40199,,334,1.0905026197433472,18.1878604888916,5.693398475646973,1.4621179103851318,11.032343864440918,,,,,,,,,
,40199,,334,,,,,,1.865759015083313,1.4675283432006836,0.37480536103248596,0.023425335064530373,,,,,
6.792031080967288e-05,40200,,,,,,,,,,,,,,,,
,40249,0.08291612565517426,335,,,,,,,,,,,,,,
,40299,0.0938246101140976,335,,,,,,,,,,,,,,
,40319,,335,1.086054801940918,19.22906494140625,7.000442981719971,1.3291980028152466,10.899423599243164,,,,,,,,,
,40319,,335,,,,,,1.8897051811218262,1.4293394088745117,0.43555566668510437,0.02481013350188732,,,,,
